0.0000000e+00  0.0000000e+00  0.0000000e+00
2.0000000e-02  -6.6003322e-07  -9.8676611e-05
4.0000000e-02  -5.2279223e-06  -3.8949164e-04
6.0000000e-02  -1.7469572e-05  -8.6479719e-04
8.0000000e-02  -4.1000216e-05  -1.5171729e-03
1.0000000e-01  -7.9288906e-05  -2.3394201e-03
1.2000000e-01  -1.3566288e-04  -3.3245554e-03
1.4000000e-01  -2.1331183e-04  -4.4658058e-03
1.6000000e-01  -3.1529203e-04  -5.7566024e-03
1.8000000e-01  -4.4453038e-04  -7.1905752e-03
2.0000000e-01  -6.0382833e-04  -8.7615481e-03
2.2000000e-01  -7.9586567e-04  -1.0463533e-02
2.4000000e-01  -1.0232043e-03  -1.2290726e-02
2.6000000e-01  -1.2882919e-03  -1.4237501e-02
2.8000000e-01  -1.5934652e-03  -1.6298405e-02
3.0000000e-01  -1.9409537e-03  -1.8468157e-02
3.2000000e-01  -2.3328829e-03  -2.0741636e-02
3.4000000e-01  -2.7712775e-03  -2.3113884e-02
3.6000000e-01  -3.2580647e-03  -2.5580098e-02
3.8000000e-01  -3.7950769e-03  -2.8135628e-02
4.0000000e-01  -4.3840551e-03  -3.0775968e-02
4.2000000e-01  -5.0266519e-03  -3.3496758e-02
4.4000000e-01  -5.7244336e-03  -3.6293777e-02
4.6000000e-01  -6.4788838e-03  -3.9162939e-02
4.8000000e-01  -7.2914057e-03  -4.2100290e-02
5.0000000e-01  -8.1633245e-03  -4.5102005e-02
5.2000000e-01  -9.0958903e-03  -4.8164384e-02
5.4000000e-01  -1.0090280e-02  -5.1283846e-02
5.6000000e-01  -1.1147602e-02  -5.4456930e-02
5.8000000e-01  -1.2268893e-02  -5.7680290e-02
6.0000000e-01  -1.3455127e-02  -6.0950691e-02
6.2000000e-01  -1.4707213e-02  -6.4265006e-02
6.4000000e-01  -1.6026000e-02  -6.7620212e-02
6.6000000e-01  -1.7412275e-02  -7.1013392e-02
6.8000000e-01  -1.8866770e-02  -7.4441726e-02
7.0000000e-01  -2.0390160e-02  -7.7902492e-02
7.2000000e-01  -2.1983068e-02  -8.1393060e-02
7.4000000e-01  -2.3646064e-02  -8.4910893e-02
7.6000000e-01  -2.5379669e-02  -8.8453544e-02
7.8000000e-01  -2.7184356e-02  -9.2018650e-02
8.0000000e-01  -2.9060550e-02  -9.5603932e-02
8.2000000e-01  -3.1008633e-02  -9.9207194e-02
8.4000000e-01  -3.3028943e-02  -1.0282632e-01
8.6000000e-01  -3.5121778e-02  -1.0645926e-01
8.8000000e-01  -3.7287393e-02  -1.1010406e-01
9.0000000e-01  -3.9526006e-02  -1.1375882e-01
9.2000000e-01  -4.1837800e-02  -1.1742172e-01
9.4000000e-01  -4.4222918e-02  -1.2109100e-01
9.6000000e-01  -4.6681471e-02  -1.2476497e-01
9.8000000e-01  -4.9213537e-02  -1.2844201e-01
1.0000000e+00  -5.1819162e-02  -1.3212056e-01
1.0200000e+00  -5.4498359e-02  -1.3579911e-01
1.0400000e+00  -5.7251116e-02  -1.3947622e-01
1.0600000e+00  -6.0077390e-02  -1.4315052e-01
1.0800000e+00  -6.2977109e-02  -1.4682065e-01
1.1000000e+00  -6.5950179e-02  -1.5048536e-01
1.1200000e+00  -6.8996479e-02  -1.5414342e-01
1.1400000e+00  -7.2115864e-02  -1.5779365e-01
1.1600000e+00  -7.5308166e-02  -1.6143492e-01
1.1800000e+00  -7.8573194e-02  -1.6506617e-01
1.2000000e+00  -8.1910739e-02  -1.6868637e-01
1.2200000e+00  -8.5320568e-02  -1.7229451e-01
1.2400000e+00  -8.8802433e-02  -1.7588968e-01
1.2600000e+00  -9.2356063e-02  -1.7947095e-01
1.2800000e+00  -9.5981172e-02  -1.8303748e-01
1.3000000e+00  -9.9677458e-02  -1.8658844e-01
1.3200000e+00  -1.0344460e-01  -1.9012305e-01
1.3400000e+00  -1.0728227e-01  -1.9364057e-01
1.3600000e+00  -1.1119011e-01  -1.9714028e-01
1.3800000e+00  -1.1516775e-01  -2.0062152e-01
1.4000000e+00  -1.1921484e-01  -2.0408364e-01
1.4200000e+00  -1.2333097e-01  -2.0752604e-01
1.4400000e+00  -1.2751574e-01  -2.1094813e-01
1.4600000e+00  -1.3176876e-01  -2.1434938e-01
1.4800000e+00  -1.3608958e-01  -2.1772927e-01
1.5000000e+00  -1.4047778e-01  -2.2108730e-01
1.5200000e+00  -1.4493292e-01  -2.2442302e-01
1.5400000e+00  -1.4945455e-01  -2.2773600e-01
1.5600000e+00  -1.5404221e-01  -2.3102583e-01
1.5800000e+00  -1.5869543e-01  -2.3429212e-01
1.6000000e+00  -1.6341373e-01  -2.3753453e-01
1.6200000e+00  -1.6819665e-01  -2.4075270e-01
1.6400000e+00  -1.7304368e-01  -2.4394634e-01
1.6600000e+00  -1.7795433e-01  -2.4711516e-01
1.6800000e+00  -1.8292812e-01  -2.5025887e-01
1.7000000e+00  -1.8796452e-01  -2.5337724e-01
1.7200000e+00  -1.9306303e-01  -2.5647004e-01
1.7400000e+00  -1.9822315e-01  -2.5953705e-01
1.7600000e+00  -2.0344434e-01  -2.6257809e-01
1.7800000e+00  -2.0872610e-01  -2.6559298e-01
1.8000000e+00  -2.1406789e-01  -2.6858156e-01
1.8200000e+00  -2.1946918e-01  -2.7154369e-01
1.8400000e+00  -2.2492946e-01  -2.7447925e-01
1.8600000e+00  -2.3044818e-01  -2.7738814e-01
1.8800000e+00  -2.3602480e-01  -2.8027025e-01
1.9000000e+00  -2.4165881e-01  -2.8312550e-01
1.9200000e+00  -2.4734965e-01  -2.8595384e-01
1.9400000e+00  -2.5309678e-01  -2.8875519e-01
1.9600000e+00  -2.5889967e-01  -2.9152954e-01
1.9800000e+00  -2.6475778e-01  -2.9427684e-01
2.0000000e+00  -2.7067057e-01  -2.9699708e-01
2.0200000e+00  -2.7663748e-01  -2.9969025e-01
2.0400000e+00  -2.8265800e-01  -3.0235636e-01
2.0600000e+00  -2.8873156e-01  -3.0499543e-01
2.0800000e+00  -2.9485763e-01  -3.0760747e-01
2.1000000e+00  -3.0103568e-01  -3.1019254e-01
2.1200000e+00  -3.0726515e-01  -3.1275066e-01
2.1400000e+00  -3.1354552e-01  -3.1528190e-01
2.1600000e+00  -3.1987625e-01  -3.1778631e-01
2.1800000e+00  -3.2625680e-01  -3.2026397e-01
2.2000000e+00  -3.3268663e-01  -3.2271495e-01
2.2200000e+00  -3.3916522e-01  -3.2513933e-01
2.2400000e+00  -3.4569203e-01  -3.2753722e-01
2.2600000e+00  -3.5226653e-01  -3.2990871e-01
2.2800000e+00  -3.5888820e-01  -3.3225390e-01
2.3000000e+00  -3.6555651e-01  -3.3457291e-01
2.3200000e+00  -3.7227094e-01  -3.3686585e-01
2.3400000e+00  -3.7903097e-01  -3.3913284e-01
2.3600000e+00  -3.8583609e-01  -3.4137402e-01
2.3800000e+00  -3.9268576e-01  -3.4358952e-01
2.4000000e+00  -3.9957950e-01  -3.4577948e-01
2.4200000e+00  -4.0651677e-01  -3.4794403e-01
2.4400000e+00  -4.1349709e-01  -3.5008334e-01
2.4600000e+00  -4.2051994e-01  -3.5219753e-01
2.4800000e+00  -4.2758482e-01  -3.5428679e-01
2.5000000e+00  -4.3469125e-01  -3.5635125e-01
2.5200000e+00  -4.4183871e-01  -3.5839109e-01
2.5400000e+00  -4.4902673e-01  -3.6040647e-01
2.5600000e+00  -4.5625481e-01  -3.6239756e-01
2.5800000e+00  -4.6352247e-01  -3.6436453e-01
2.6000000e+00  -4.7082923e-01  -3.6630756e-01
2.6200000e+00  -4.7817461e-01  -3.6822682e-01
2.6400000e+00  -4.8555814e-01  -3.7012249e-01
2.6600000e+00  -4.9297936e-01  -3.7199475e-01
2.6800000e+00  -5.0043778e-01  -3.7384380e-01
2.7000000e+00  -5.0793295e-01  -3.7566980e-01
2.7200000e+00  -5.1546442e-01  -3.7747296e-01
2.7400000e+00  -5.2303172e-01  -3.7925345e-01
2.7600000e+00  -5.3063441e-01  -3.8101148e-01
2.7800000e+00  -5.3827203e-01  -3.8274722e-01
2.8000000e+00  -5.4594415e-01  -3.8446088e-01
2.8200000e+00  -5.5365032e-01  -3.8615265e-01
2.8400000e+00  -5.6139011e-01  -3.8782272e-01
2.8600000e+00  -5.6916309e-01  -3.8947129e-01
2.8800000e+00  -5.7696882e-01  -3.9109856e-01
2.9000000e+00  -5.8480689e-01  -3.9270472e-01
2.9200000e+00  -5.9267687e-01  -3.9428997e-01
2.9400000e+00  -6.0057835e-01  -3.9585451e-01
2.9600000e+00  -6.0851091e-01  -3.9739854e-01
2.9800000e+00  -6.1647416e-01  -3.9892226e-01
3.0000000e+00  -6.2446767e-01  -4.0042586e-01
3.0200000e+00  -6.3249106e-01  -4.0190955e-01
3.0400000e+00  -6.4054392e-01  -4.0337352e-01
3.0600000e+00  -6.4862587e-01  -4.0481798e-01
3.0800000e+00  -6.5673651e-01  -4.0624312e-01
3.1000000e+00  -6.6487547e-01  -4.0764914e-01
3.1200000e+00  -6.7304235e-01  -4.0903623e-01
3.1400000e+00  -6.8123679e-01  -4.1040461e-01
3.1600000e+00  -6.8945841e-01  -4.1175446e-01
3.1800000e+00  -6.9770685e-01  -4.1308598e-01
3.2000000e+00  -7.0598173e-01  -4.1439937e-01
3.2200000e+00  -7.1428270e-01  -4.1569483e-01
3.2400000e+00  -7.2260940e-01  -4.1697254e-01
3.2600000e+00  -7.3096149e-01  -4.1823271e-01
3.2800000e+00  -7.3933860e-01  -4.1947553e-01
3.3000000e+00  -7.4774039e-01  -4.2070119e-01
3.3200000e+00  -7.5616653e-01  -4.2190988e-01
3.3400000e+00  -7.6461668e-01  -4.2310180e-01
3.3600000e+00  -7.7309049e-01  -4.2427714e-01
3.3800000e+00  -7.8158765e-01  -4.2543607e-01
3.4000000e+00  -7.9010783e-01  -4.2657881e-01
3.4200000e+00  -7.9865070e-01  -4.2770552e-01
3.4400000e+00  -8.0721594e-01  -4.2881640e-01
3.4600000e+00  -8.1580325e-01  -4.2991163e-01
3.4800000e+00  -8.2441231e-01  -4.3099140e-01
3.5000000e+00  -8.3304280e-01  -4.3205589e-01
3.5200000e+00  -8.4169444e-01  -4.3310528e-01
3.5400000e+00  -8.5036692e-01  -4.3413975e-01
3.5600000e+00  -8.5905993e-01  -4.3515948e-01
3.5800000e+00  -8.6777320e-01  -4.3616465e-01
3.6000000e+00  -8.7650642e-01  -4.3715544e-01
3.6200000e+00  -8.8525932e-01  -4.3813202e-01
3.6400000e+00  -8.9403161e-01  -4.3909456e-01
3.6600000e+00  -9.0282301e-01  -4.4004325e-01
3.6800000e+00  -9.1163325e-01  -4.4097824e-01
3.7000000e+00  -9.2046205e-01  -4.4189971e-01
3.7200000e+00  -9.2930915e-01  -4.4280784e-01
3.7400000e+00  -9.3817428e-01  -4.4370278e-01
3.7600000e+00  -9.4705717e-01  -4.4458470e-01
3.7800000e+00  -9.5595758e-01  -4.4545377e-01
3.8000000e+00  -9.6487524e-01  -4.4631015e-01
3.8200000e+00  -9.7380990e-01  -4.4715400e-01
3.8400000e+00  -9.8276132e-01  -4.4798548e-01
3.8600000e+00  -9.9172924e-01  -4.4880476e-01
3.8800000e+00  -1.0007134e+00  -4.4961199e-01
3.9000000e+00  -1.0097136e+00  -4.5040732e-01
3.9200000e+00  -1.0187296e+00  -4.5119091e-01
3.9400000e+00  -1.0277612e+00  -4.5196291e-01
3.9600000e+00  -1.0368081e+00  -4.5272348e-01
3.9800000e+00  -1.0458701e+00  -4.5347276e-01
4.0000000e+00  -1.0549469e+00  -4.5421090e-01
4.0200000e+00  -1.0640384e+00  -4.5493806e-01
4.0400000e+00  -1.0731444e+00  -4.5565437e-01
4.0600000e+00  -1.0822645e+00  -4.5635998e-01
4.0800000e+00  -1.0913987e+00  -4.5705504e-01
4.1000000e+00  -1.1005467e+00  -4.5773968e-01
4.1200000e+00  -1.1097082e+00  -4.5841404e-01
4.1400000e+00  -1.1188832e+00  -4.5907827e-01
4.1600000e+00  -1.1280713e+00  -4.5973250e-01
4.1800000e+00  -1.1372724e+00  -4.6037687e-01
4.2000000e+00  -1.1464863e+00  -4.6101150e-01
4.2200000e+00  -1.1557128e+00  -4.6163654e-01
4.2400000e+00  -1.1649517e+00  -4.6225211e-01
4.2600000e+00  -1.1742028e+00  -4.6285834e-01
4.2800000e+00  -1.1834660e+00  -4.6345537e-01
4.3000000e+00  -1.1927410e+00  -4.6404332e-01
4.3200000e+00  -1.2020276e+00  -4.6462231e-01
4.3400000e+00  -1.2113258e+00  -4.6519247e-01
4.3600000e+00  -1.2206353e+00  -4.6575392e-01
4.3800000e+00  -1.2299559e+00  -4.6630679e-01
4.4000000e+00  -1.2392875e+00  -4.6685118e-01
4.4200000e+00  -1.2486299e+00  -4.6738723e-01
4.4400000e+00  -1.2579829e+00  -4.6791505e-01
4.4600000e+00  -1.2673464e+00  -4.6843475e-01
4.4800000e+00  -1.2767203e+00  -4.6894645e-01
4.5000000e+00  -1.2861042e+00  -4.6945026e-01
4.5200000e+00  -1.2954982e+00  -4.6994629e-01
4.5400000e+00  -1.3049020e+00  -4.7043466e-01
4.5600000e+00  -1.3143156e+00  -4.7091548e-01
4.5800000e+00  -1.3237386e+00  -4.7138884e-01
4.6000000e+00  -1.3331711e+00  -4.7185486e-01
4.6200000e+00  -1.3426128e+00  -4.7231364e-01
4.6400000e+00  -1.3520636e+00  -4.7276529e-01
4.6600000e+00  -1.3615233e+00  -4.7320991e-01
4.6800000e+00  -1.3709919e+00  -4.7364760e-01
4.7000000e+00  -1.3804692e+00  -4.7407846e-01
4.7200000e+00  -1.3899550e+00  -4.7450259e-01
4.7400000e+00  -1.3994492e+00  -4.7492009e-01
4.7600000e+00  -1.4089518e+00  -4.7533104e-01
4.7800000e+00  -1.4184624e+00  -4.7573556e-01
4.8000000e+00  -1.4279811e+00  -4.7613373e-01
4.8200000e+00  -1.4375077e+00  -4.7652565e-01
4.8400000e+00  -1.4470421e+00  -4.7691140e-01
4.8600000e+00  -1.4565842e+00  -4.7729108e-01
4.8800000e+00  -1.4661337e+00  -4.7766478e-01
4.9000000e+00  -1.4756907e+00  -4.7803258e-01
4.9200000e+00  -1.4852550e+00  -4.7839457e-01
4.9400000e+00  -1.4948265e+00  -4.7875084e-01
4.9600000e+00  -1.5044050e+00  -4.7910147e-01
4.9800000e+00  -1.5139905e+00  -4.7944655e-01
5.0000000e+00  -1.5235828e+00  -4.7978616e-01
5.0200000e+00  -1.5331819e+00  -4.8012037e-01
5.0400000e+00  -1.5427876e+00  -4.8044928e-01
5.0600000e+00  -1.5523998e+00  -4.8077295e-01
5.0800000e+00  -1.5620185e+00  -4.8109148e-01
5.1000000e+00  -1.5716434e+00  -4.8140492e-01
5.1200000e+00  -1.5812746e+00  -4.8171337e-01
5.1400000e+00  -1.5909120e+00  -4.8201689e-01
5.1600000e+00  -1.6005553e+00  -4.8231556e-01
5.1800000e+00  -1.6102045e+00  -4.8260946e-01
5.2000000e+00  -1.6198596e+00  -4.8289865e-01
5.2200000e+00  -1.6295205e+00  -4.8318321e-01
5.2400000e+00  -1.6391869e+00  -4.8346320e-01
5.2600000e+00  -1.6488590e+00  -4.8373870e-01
5.2800000e+00  -1.6585364e+00  -4.8400977e-01
5.3000000e+00  -1.6682193e+00  -4.8427648e-01
5.3200000e+00  -1.6779075e+00  -4.8453890e-01
5.3400000e+00  -1.6876008e+00  -4.8479709e-01
5.3600000e+00  -1.6972993e+00  -4.8505112e-01
5.3800000e+00  -1.7070029e+00  -4.8530105e-01
5.4000000e+00  -1.7167113e+00  -4.8554694e-01
5.4200000e+00  -1.7264247e+00  -4.8578886e-01
5.4400000e+00  -1.7361429e+00  -4.8602686e-01
5.4600000e+00  -1.7458658e+00  -4.8626101e-01
5.4800000e+00  -1.7555933e+00  -4.8649137e-01
5.5000000e+00  -1.7653254e+00  -4.8671799e-01
5.5200000e+00  -1.7750620e+00  -4.8694094e-01
5.5400000e+00  -1.7848030e+00  -4.8716026e-01
5.5600000e+00  -1.7945484e+00  -4.8737601e-01
5.5800000e+00  -1.8042980e+00  -4.8758826e-01
5.6000000e+00  -1.8140519e+00  -4.8779705e-01
5.6200000e+00  -1.8238099e+00  -4.8800244e-01
5.6400000e+00  -1.8335720e+00  -4.8820448e-01
5.6600000e+00  -1.8433380e+00  -4.8840322e-01
5.6800000e+00  -1.8531081e+00  -4.8859871e-01
5.7000000e+00  -1.8628820e+00  -4.8879102e-01
5.7200000e+00  -1.8726597e+00  -4.8898017e-01
5.7400000e+00  -1.8824412e+00  -4.8916623e-01
5.7600000e+00  -1.8922263e+00  -4.8934924e-01
5.7800000e+00  -1.9020151e+00  -4.8952925e-01
5.8000000e+00  -1.9118075e+00  -4.8970631e-01
5.8200000e+00  -1.9216033e+00  -4.8988047e-01
5.8400000e+00  -1.9314027e+00  -4.9005176e-01
5.8600000e+00  -1.9412054e+00  -4.9022023e-01
5.8800000e+00  -1.9510115e+00  -4.9038594e-01
5.9000000e+00  -1.9608208e+00  -4.9054892e-01
5.9200000e+00  -1.9706334e+00  -4.9070921e-01
5.9400000e+00  -1.9804492e+00  -4.9086686e-01
5.9600000e+00  -1.9902680e+00  -4.9102191e-01
5.9800000e+00  -2.0000900e+00  -4.9117440e-01
6.0000000e+00  -2.0099150e+00  -4.9132437e-01
6.0200000e+00  -2.0197430e+00  -4.9147186e-01
6.0400000e+00  -2.0295739e+00  -4.9161691e-01
6.0600000e+00  -2.0394076e+00  -4.9175956e-01
6.0800000e+00  -2.0492442e+00  -4.9189985e-01
6.1000000e+00  -2.0590836e+00  -4.9203782e-01
6.1200000e+00  -2.0689257e+00  -4.9217350e-01
6.1400000e+00  -2.0787705e+00  -4.9230692e-01
6.1600000e+00  -2.0886180e+00  -4.9243813e-01
6.1800000e+00  -2.0984680e+00  -4.9256716e-01
6.2000000e+00  -2.1083207e+00  -4.9269405e-01
6.2200000e+00  -2.1181758e+00  -4.9281882e-01
6.2400000e+00  -2.1280334e+00  -4.9294152e-01
6.2600000e+00  -2.1378934e+00  -4.9306218e-01
6.2800000e+00  -2.1477559e+00  -4.9318082e-01
6.3000000e+00  -2.1576207e+00  -4.9329749e-01
6.3200000e+00  -2.1674878e+00  -4.9341221e-01
6.3400000e+00  -2.1773571e+00  -4.9352501e-01
6.3600000e+00  -2.1872288e+00  -4.9363593e-01
6.3800000e+00  -2.1971026e+00  -4.9374500e-01
6.4000000e+00  -2.2069785e+00  -4.9385224e-01
6.4200000e+00  -2.2168566e+00  -4.9395769e-01
6.4400000e+00  -2.2267368e+00  -4.9406137e-01
6.4600000e+00  -2.2366191e+00  -4.9416331e-01
6.4800000e+00  -2.2465034e+00  -4.9426355e-01
6.5000000e+00  -2.2563896e+00  -4.9436210e-01
6.5200000e+00  -2.2662778e+00  -4.9445900e-01
6.5400000e+00  -2.2761680e+00  -4.9455428e-01
6.5600000e+00  -2.2860600e+00  -4.9464795e-01
6.5800000e+00  -2.2959539e+00  -4.9474005e-01
6.6000000e+00  -2.3058496e+00  -4.9483060e-01
6.6200000e+00  -2.3157471e+00  -4.9491963e-01
6.6400000e+00  -2.3256464e+00  -4.9500716e-01
6.6600000e+00  -2.3355474e+00  -4.9509321e-01
6.6800000e+00  -2.3454501e+00  -4.9517781e-01
6.7000000e+00  -2.3553545e+00  -4.9526099e-01
6.7200000e+00  -2.3652605e+00  -4.9534276e-01
6.7400000e+00  -2.3751682e+00  -4.9542316e-01
6.7600000e+00  -2.3850774e+00  -4.9550219e-01
6.7800000e+00  -2.3949882e+00  -4.9557989e-01
6.8000000e+00  -2.4049006e+00  -4.9565628e-01
6.8200000e+00  -2.4148145e+00  -4.9573137e-01
6.8400000e+00  -2.4247299e+00  -4.9580519e-01
6.8600000e+00  -2.4346467e+00  -4.9587777e-01
6.8800000e+00  -2.4445650e+00  -4.9594911e-01
6.9000000e+00  -2.4544846e+00  -4.9601925e-01
6.9200000e+00  -2.4644057e+00  -4.9608819e-01
6.9400000e+00  -2.4743282e+00  -4.9615597e-01
6.9600000e+00  -2.4842520e+00  -4.9622260e-01
6.9800000e+00  -2.4941771e+00  -4.9628809e-01
7.0000000e+00  -2.5041035e+00  -4.9635247e-01
7.0200000e+00  -2.5140312e+00  -4.9641576e-01
7.0400000e+00  -2.5239601e+00  -4.9647797e-01
7.0600000e+00  -2.5338903e+00  -4.9653912e-01
7.0800000e+00  -2.5438216e+00  -4.9659924e-01
7.1000000e+00  -2.5537542e+00  -4.9665832e-01
7.1200000e+00  -2.5636880e+00  -4.9671641e-01
7.1400000e+00  -2.5736229e+00  -4.9677350e-01
7.1600000e+00  -2.5835589e+00  -4.9682962e-01
7.1800000e+00  -2.5934961e+00  -4.9688478e-01
7.2000000e+00  -2.6034343e+00  -4.9693900e-01
7.2200000e+00  -2.6133736e+00  -4.9699229e-01
7.2400000e+00  -2.6233140e+00  -4.9704468e-01
7.2600000e+00  -2.6332554e+00  -4.9709616e-01
7.2800000e+00  -2.6431978e+00  -4.9714677e-01
7.3000000e+00  -2.6531413e+00  -4.9719651e-01
7.3200000e+00  -2.6630857e+00  -4.9724541e-01
7.3400000e+00  -2.6730311e+00  -4.9729346e-01
7.3600000e+00  -2.6829774e+00  -4.9734069e-01
7.3800000e+00  -2.6929247e+00  -4.9738711e-01
7.4000000e+00  -2.7028729e+00  -4.9743274e-01
7.4200000e+00  -2.7128220e+00  -4.9747758e-01
7.4400000e+00  -2.7227720e+00  -4.9752166e-01
7.4600000e+00  -2.7327229e+00  -4.9756497e-01
7.4800000e+00  -2.7426746e+00  -4.9760755e-01
7.5000000e+00  -2.7526271e+00  -4.9764939e-01
7.5200000e+00  -2.7625806e+00  -4.9769052e-01
7.5400000e+00  -2.7725348e+00  -4.9773093e-01
7.5600000e+00  -2.7824898e+00  -4.9777065e-01
7.5800000e+00  -2.7924456e+00  -4.9780969e-01
7.6000000e+00  -2.8024022e+00  -4.9784806e-01
7.6200000e+00  -2.8123595e+00  -4.9788576e-01
7.6400000e+00  -2.8223176e+00  -4.9792282e-01
7.6600000e+00  -2.8322764e+00  -4.9795924e-01
7.6800000e+00  -2.8422360e+00  -4.9799503e-01
7.7000000e+00  -2.8521962e+00  -4.9803020e-01
7.7200000e+00  -2.8621572e+00  -4.9806477e-01
7.7400000e+00  -2.8721188e+00  -4.9809874e-01
7.7600000e+00  -2.8820811e+00  -4.9813212e-01
7.7800000e+00  -2.8920441e+00  -4.9816493e-01
7.8000000e+00  -2.9020077e+00  -4.9819717e-01
7.8200000e+00  -2.9119720e+00  -4.9822885e-01
7.8400000e+00  -2.9219369e+00  -4.9825998e-01
7.8600000e+00  -2.9319024e+00  -4.9829058e-01
7.8800000e+00  -2.9418685e+00  -4.9832065e-01
7.9000000e+00  -2.9518352e+00  -4.9835019e-01
7.9200000e+00  -2.9618025e+00  -4.9837923e-01
7.9400000e+00  -2.9717703e+00  -4.9840776e-01
7.9600000e+00  -2.9817388e+00  -4.9843579e-01
7.9800000e+00  -2.9917078e+00  -4.9846334e-01
8.0000000e+00  -3.0016773e+00  -4.9849042e-01
8.0200000e+00  -3.0116474e+00  -4.9851702e-01
8.0400000e+00  -3.0216180e+00  -4.9854316e-01
8.0600000e+00  -3.0315891e+00  -4.9856885e-01
8.0800000e+00  -3.0415607e+00  -4.9859409e-01
8.1000000e+00  -3.0515329e+00  -4.9861890e-01
8.1200000e+00  -3.0615055e+00  -4.9864327e-01
8.1400000e+00  -3.0714786e+00  -4.9866722e-01
8.1600000e+00  -3.0814522e+00  -4.9869075e-01
8.1800000e+00  -3.0914262e+00  -4.9871387e-01
8.2000000e+00  -3.1014007e+00  -4.9873659e-01
8.2200000e+00  -3.1113757e+00  -4.9875892e-01
8.2400000e+00  -3.1213511e+00  -4.9878085e-01
8.2600000e+00  -3.1313269e+00  -4.9880241e-01
8.2800000e+00  -3.1413032e+00  -4.9882359e-01
8.3000000e+00  -3.1512799e+00  -4.9884440e-01
8.3200000e+00  -3.1612570e+00  -4.9886484e-01
8.3400000e+00  -3.1712345e+00  -4.9888493e-01
8.3600000e+00  -3.1812123e+00  -4.9890467e-01
8.3800000e+00  -3.1911906e+00  -4.9892407e-01
8.4000000e+00  -3.2011693e+00  -4.9894312e-01
8.4200000e+00  -3.2111484e+00  -4.9896185e-01
8.4400000e+00  -3.2211278e+00  -4.9898024e-01
8.4600000e+00  -3.2311076e+00  -4.9899832e-01
8.4800000e+00  -3.2410877e+00  -4.9901608e-01
8.5000000e+00  -3.2510682e+00  -4.9903353e-01
8.5200000e+00  -3.2610491e+00  -4.9905067e-01
8.5400000e+00  -3.2710302e+00  -4.9906751e-01
8.5600000e+00  -3.2810117e+00  -4.9908406e-01
8.5800000e+00  -3.2909936e+00  -4.9910032e-01
8.6000000e+00  -3.3009758e+00  -4.9911629e-01
8.6200000e+00  -3.3109582e+00  -4.9913199e-01
8.6400000e+00  -3.3209410e+00  -4.9914741e-01
8.6600000e+00  -3.3309241e+00  -4.9916255e-01
8.6800000e+00  -3.3409075e+00  -4.9917744e-01
8.7000000e+00  -3.3508912e+00  -4.9919206e-01
8.7200000e+00  -3.3608752e+00  -4.9920642e-01
8.7400000e+00  -3.3708595e+00  -4.9922054e-01
8.7600000e+00  -3.3808440e+00  -4.9923440e-01
8.7800000e+00  -3.3908289e+00  -4.9924803e-01
8.8000000e+00  -3.4008140e+00  -4.9926141e-01
8.8200000e+00  -3.4107993e+00  -4.9927456e-01
8.8400000e+00  -3.4207849e+00  -4.9928747e-01
8.8600000e+00  -3.4307708e+00  -4.9930016e-01
8.8800000e+00  -3.4407569e+00  -4.9931263e-01
8.9000000e+00  -3.4507433e+00  -4.9932487e-01
8.9200000e+00  -3.4607299e+00  -4.9933691e-01
8.9400000e+00  -3.4707168e+00  -4.9934873e-01
8.9600000e+00  -3.4807039e+00  -4.9936034e-01
8.9800000e+00  -3.4906912e+00  -4.9937174e-01
9.0000000e+00  -3.5006788e+00  -4.9938295e-01
9.0200000e+00  -3.5106665e+00  -4.9939396e-01
9.0400000e+00  -3.5206545e+00  -4.9940477e-01
9.0600000e+00  -3.5306427e+00  -4.9941540e-01
9.0800000e+00  -3.5406311e+00  -4.9942584e-01
9.1000000e+00  -3.5506197e+00  -4.9943609e-01
9.1200000e+00  -3.5606086e+00  -4.9944616e-01
9.1400000e+00  -3.5705976e+00  -4.9945605e-01
9.1600000e+00  -3.5805868e+00  -4.9946577e-01
9.1800000e+00  -3.5905762e+00  -4.9947532e-01
9.2000000e+00  -3.6005658e+00  -4.9948470e-01
9.2200000e+00  -3.6105556e+00  -4.9949391e-01
9.2400000e+00  -3.6205456e+00  -4.9950296e-01
9.2600000e+00  -3.6305357e+00  -4.9951185e-01
9.2800000e+00  -3.6405260e+00  -4.9952059e-01
9.3000000e+00  -3.6505165e+00  -4.9952917e-01
9.3200000e+00  -3.6605072e+00  -4.9953759e-01
9.3400000e+00  -3.6704980e+00  -4.9954587e-01
9.3600000e+00  -3.6804890e+00  -4.9955400e-01
9.3800000e+00  -3.6904802e+00  -4.9956199e-01
9.4000000e+00  -3.7004715e+00  -4.9956983e-01
9.4200000e+00  -3.7104630e+00  -4.9957754e-01
9.4400000e+00  -3.7204546e+00  -4.9958511e-01
9.4600000e+00  -3.7304464e+00  -4.9959255e-01
9.4800000e+00  -3.7404383e+00  -4.9959985e-01
9.5000000e+00  -3.7504304e+00  -4.9960703e-01
9.5200000e+00  -3.7604226e+00  -4.9961408e-01
9.5400000e+00  -3.7704150e+00  -4.9962100e-01
9.5600000e+00  -3.7804074e+00  -4.9962780e-01
9.5800000e+00  -3.7904001e+00  -4.9963448e-01
9.6000000e+00  -3.8003928e+00  -4.9964104e-01
9.6200000e+00  -3.8103857e+00  -4.9964748e-01
9.6400000e+00  -3.8203787e+00  -4.9965381e-01
9.6600000e+00  -3.8303719e+00  -4.9966003e-01
9.6800000e+00  -3.8403651e+00  -4.9966614e-01
9.7000000e+00  -3.8503585e+00  -4.9967213e-01
9.7200000e+00  -3.8603520e+00  -4.9967802e-01
9.7400000e+00  -3.8703456e+00  -4.9968381e-01
9.7600000e+00  -3.8803394e+00  -4.9968950e-01
9.7800000e+00  -3.8903332e+00  -4.9969508e-01
9.8000000e+00  -3.9003272e+00  -4.9970056e-01
9.8200000e+00  -3.9103212e+00  -4.9970595e-01
9.8400000e+00  -3.9203154e+00  -4.9971124e-01
9.8600000e+00  -3.9303097e+00  -4.9971643e-01
9.8800000e+00  -3.9403041e+00  -4.9972154e-01
9.9000000e+00  -3.9502985e+00  -4.9972655e-01
9.9200000e+00  -3.9602931e+00  -4.9973147e-01
9.9400000e+00  -3.9702878e+00  -4.9973631e-01
9.9600000e+00  -3.9802826e+00  -4.9974105e-01
9.9800000e+00  -3.9902774e+00  -4.9974572e-01
1.0000000e+01  -4.0002724e+00  -4.9975030e-01
1.0020000e+01  -4.0102674e+00  -4.9975480e-01
1.0040000e+01  -4.0202626e+00  -4.9975922e-01
1.0060000e+01  -4.0302578e+00  -4.9976356e-01
1.0080000e+01  -4.0402531e+00  -4.9976782e-01
1.0100000e+01  -4.0502485e+00  -4.9977201e-01
1.0120000e+01  -4.0602440e+00  -4.9977612e-01
1.0140000e+01  -4.0702396e+00  -4.9978016e-01
1.0160000e+01  -4.0802352e+00  -4.9978412e-01
1.0180000e+01  -4.0902309e+00  -4.9978802e-01
1.0200000e+01  -4.1002267e+00  -4.9979185e-01
1.0220000e+01  -4.1102226e+00  -4.9979560e-01
1.0240000e+01  -4.1202186e+00  -4.9979929e-01
1.0260000e+01  -4.1302146e+00  -4.9980292e-01
1.0280000e+01  -4.1402107e+00  -4.9980648e-01
1.0300000e+01  -4.1502068e+00  -4.9980997e-01
1.0320000e+01  -4.1602031e+00  -4.9981341e-01
1.0340000e+01  -4.1701994e+00  -4.9981678e-01
1.0360000e+01  -4.1801957e+00  -4.9982009e-01
1.0380000e+01  -4.1901922e+00  -4.9982334e-01
1.0400000e+01  -4.2001887e+00  -4.9982653e-01
1.0420000e+01  -4.2101852e+00  -4.9982967e-01
1.0440000e+01  -4.2201819e+00  -4.9983275e-01
1.0460000e+01  -4.2301786e+00  -4.9983578e-01
1.0480000e+01  -4.2401753e+00  -4.9983875e-01
1.0500000e+01  -4.2501721e+00  -4.9984167e-01
1.0520000e+01  -4.2601690e+00  -4.9984453e-01
1.0540000e+01  -4.2701659e+00  -4.9984734e-01
1.0560000e+01  -4.2801629e+00  -4.9985011e-01
1.0580000e+01  -4.2901599e+00  -4.9985282e-01
1.0600000e+01  -4.3001570e+00  -4.9985549e-01
1.0620000e+01  -4.3101541e+00  -4.9985810e-01
1.0640000e+01  -4.3201513e+00  -4.9986067e-01
1.0660000e+01  -4.3301485e+00  -4.9986320e-01
1.0680000e+01  -4.3401458e+00  -4.9986568e-01
1.0700000e+01  -4.3501432e+00  -4.9986811e-01
1.0720000e+01  -4.3601405e+00  -4.9987050e-01
1.0740000e+01  -4.3701380e+00  -4.9987285e-01
1.0760000e+01  -4.3801355e+00  -4.9987516e-01
1.0780000e+01  -4.3901330e+00  -4.9987742e-01
1.0800000e+01  -4.4001306e+00  -4.9987964e-01
1.0820000e+01  -4.4101282e+00  -4.9988183e-01
1.0840000e+01  -4.4201258e+00  -4.9988397e-01
1.0860000e+01  -4.4301235e+00  -4.9988608e-01
1.0880000e+01  -4.4401213e+00  -4.9988814e-01
1.0900000e+01  -4.4501191e+00  -4.9989017e-01
1.0920000e+01  -4.4601169e+00  -4.9989217e-01
1.0940000e+01  -4.4701147e+00  -4.9989413e-01
1.0960000e+01  -4.4801126e+00  -4.9989605e-01
1.0980000e+01  -4.4901106e+00  -4.9989794e-01
1.1000000e+01  -4.5001086e+00  -4.9989979e-01
1.1020000e+01  -4.5101066e+00  -4.9990161e-01
1.1040000e+01  -4.5201046e+00  -4.9990340e-01
1.1060000e+01  -4.5301027e+00  -4.9990515e-01
1.1080000e+01  -4.5401008e+00  -4.9990688e-01
1.1100000e+01  -4.5500990e+00  -4.9990857e-01
1.1120000e+01  -4.5600972e+00  -4.9991023e-01
1.1140000e+01  -4.5700954e+00  -4.9991186e-01
1.1160000e+01  -4.5800936e+00  -4.9991347e-01
1.1180000e+01  -4.5900919e+00  -4.9991504e-01
1.1200000e+01  -4.6000902e+00  -4.9991659e-01
1.1220000e+01  -4.6100886e+00  -4.9991810e-01
1.1240000e+01  -4.6200870e+00  -4.9991960e-01
1.1260000e+01  -4.6300854e+00  -4.9992106e-01
1.1280000e+01  -4.6400838e+00  -4.9992250e-01
1.1300000e+01  -4.6500823e+00  -4.9992391e-01
1.1320000e+01  -4.6600808e+00  -4.9992529e-01
1.1340000e+01  -4.6700793e+00  -4.9992665e-01
1.1360000e+01  -4.6800778e+00  -4.9992799e-01
1.1380000e+01  -4.6900764e+00  -4.9992930e-01
1.1400000e+01  -4.7000750e+00  -4.9993059e-01
1.1420000e+01  -4.7100736e+00  -4.9993185e-01
1.1440000e+01  -4.7200723e+00  -4.9993309e-01
1.1460000e+01  -4.7300710e+00  -4.9993431e-01
1.1480000e+01  -4.7400697e+00  -4.9993551e-01
1.1500000e+01  -4.7500684e+00  -4.9993669e-01
1.1520000e+01  -4.7600671e+00  -4.9993784e-01
1.1540000e+01  -4.7700659e+00  -4.9993897e-01
1.1560000e+01  -4.7800647e+00  -4.9994009e-01
1.1580000e+01  -4.7900635e+00  -4.9994118e-01
1.1600000e+01  -4.8000623e+00  -4.9994225e-01
1.1620000e+01  -4.8100612e+00  -4.9994331e-01
1.1640000e+01  -4.8200601e+00  -4.9994434e-01
1.1660000e+01  -4.8300590e+00  -4.9994536e-01
1.1680000e+01  -4.8400579e+00  -4.9994635e-01
1.1700000e+01  -4.8500568e+00  -4.9994733e-01
1.1720000e+01  -4.8600558e+00  -4.9994830e-01
1.1740000e+01  -4.8700547e+00  -4.9994924e-01
1.1760000e+01  -4.8800537e+00  -4.9995017e-01
1.1780000e+01  -4.8900527e+00  -4.9995108e-01
1.1800000e+01  -4.9000518e+00  -4.9995197e-01
1.1820000e+01  -4.9100508e+00  -4.9995285e-01
1.1840000e+01  -4.9200499e+00  -4.9995371e-01
1.1860000e+01  -4.9300490e+00  -4.9995456e-01
1.1880000e+01  -4.9400481e+00  -4.9995539e-01
1.1900000e+01  -4.9500472e+00  -4.9995620e-01
1.1920000e+01  -4.9600463e+00  -4.9995700e-01
1.1940000e+01  -4.9700455e+00  -4.9995779e-01
1.1960000e+01  -4.9800446e+00  -4.9995856e-01
1.1980000e+01  -4.9900438e+00  -4.9995932e-01
1.2000000e+01  -5.0000430e+00  -4.9996006e-01
1.2020000e+01  -5.0100422e+00  -4.9996079e-01
1.2040000e+01  -5.0200414e+00  -4.9996151e-01
1.2060000e+01  -5.0300407e+00  -4.9996221e-01
1.2080000e+01  -5.0400399e+00  -4.9996291e-01
1.2100000e+01  -5.0500392e+00  -4.9996359e-01
1.2120000e+01  -5.0600385e+00  -4.9996425e-01
1.2140000e+01  -5.0700378e+00  -4.9996491e-01
1.2160000e+01  -5.0800371e+00  -4.9996555e-01
1.2180000e+01  -5.0900364e+00  -4.9996618e-01
1.2200000e+01  -5.1000357e+00  -4.9996680e-01
1.2220000e+01  -5.1100351e+00  -4.9996741e-01
1.2240000e+01  -5.1200344e+00  -4.9996800e-01
1.2260000e+01  -5.1300338e+00  -4.9996859e-01
1.2280000e+01  -5.1400332e+00  -4.9996917e-01
1.2300000e+01  -5.1500325e+00  -4.9996973e-01
1.2320000e+01  -5.1600319e+00  -4.9997029e-01
1.2340000e+01  -5.1700314e+00  -4.9997083e-01
1.2360000e+01  -5.1800308e+00  -4.9997136e-01
1.2380000e+01  -5.1900302e+00  -4.9997189e-01
1.2400000e+01  -5.2000297e+00  -4.9997241e-01
1.2420000e+01  -5.2100291e+00  -4.9997291e-01
1.2440000e+01  -5.2200286e+00  -4.9997341e-01
1.2460000e+01  -5.2300280e+00  -4.9997390e-01
1.2480000e+01  -5.2400275e+00  -4.9997437e-01
1.2500000e+01  -5.2500270e+00  -4.9997485e-01
1.2520000e+01  -5.2600265e+00  -4.9997531e-01
1.2540000e+01  -5.2700260e+00  -4.9997576e-01
1.2560000e+01  -5.2800255e+00  -4.9997620e-01
1.2580000e+01  -5.2900251e+00  -4.9997664e-01
1.2600000e+01  -5.3000246e+00  -4.9997707e-01
1.2620000e+01  -5.3100242e+00  -4.9997749e-01
1.2640000e+01  -5.3200237e+00  -4.9997790e-01
1.2660000e+01  -5.3300233e+00  -4.9997831e-01
1.2680000e+01  -5.3400228e+00  -4.9997871e-01
1.2700000e+01  -5.3500224e+00  -4.9997910e-01
1.2720000e+01  -5.3600220e+00  -4.9997948e-01
1.2740000e+01  -5.3700216e+00  -4.9997986e-01
1.2760000e+01  -5.3800212e+00  -4.9998023e-01
1.2780000e+01  -5.3900208e+00  -4.9998059e-01
1.2800000e+01  -5.4000204e+00  -4.9998095e-01
1.2820000e+01  -5.4100201e+00  -4.9998130e-01
1.2840000e+01  -5.4200197e+00  -4.9998164e-01
1.2860000e+01  -5.4300193e+00  -4.9998198e-01
1.2880000e+01  -5.4400190e+00  -4.9998231e-01
1.2900000e+01  -5.4500186e+00  -4.9998264e-01
1.2920000e+01  -5.4600183e+00  -4.9998296e-01
1.2940000e+01  -5.4700179e+00  -4.9998327e-01
1.2960000e+01  -5.4800176e+00  -4.9998358e-01
1.2980000e+01  -5.4900173e+00  -4.9998388e-01
1.3000000e+01  -5.5000170e+00  -4.9998418e-01
1.3020000e+01  -5.5100166e+00  -4.9998447e-01
1.3040000e+01  -5.5200163e+00  -4.9998475e-01
1.3060000e+01  -5.5300160e+00  -4.9998504e-01
1.3080000e+01  -5.5400157e+00  -4.9998531e-01
1.3100000e+01  -5.5500154e+00  -4.9998558e-01
1.3120000e+01  -5.5600152e+00  -4.9998585e-01
1.3140000e+01  -5.5700149e+00  -4.9998611e-01
1.3160000e+01  -5.5800146e+00  -4.9998636e-01
1.3180000e+01  -5.5900143e+00  -4.9998661e-01
1.3200000e+01  -5.6000141e+00  -4.9998686e-01
1.3220000e+01  -5.6100138e+00  -4.9998710e-01
1.3240000e+01  -5.6200135e+00  -4.9998734e-01
1.3260000e+01  -5.6300133e+00  -4.9998757e-01
1.3280000e+01  -5.6400131e+00  -4.9998780e-01
1.3300000e+01  -5.6500128e+00  -4.9998803e-01
1.3320000e+01  -5.6600126e+00  -4.9998825e-01
1.3340000e+01  -5.6700123e+00  -4.9998846e-01
1.3360000e+01  -5.6800121e+00  -4.9998868e-01
1.3380000e+01  -5.6900119e+00  -4.9998889e-01
1.3400000e+01  -5.7000117e+00  -4.9998909e-01
1.3420000e+01  -5.7100114e+00  -4.9998929e-01
1.3440000e+01  -5.7200112e+00  -4.9998949e-01
1.3460000e+01  -5.7300110e+00  -4.9998968e-01
1.3480000e+01  -5.7400108e+00  -4.9998987e-01
1.3500000e+01  -5.7500106e+00  -4.9999006e-01
1.3520000e+01  -5.7600104e+00  -4.9999024e-01
1.3540000e+01  -5.7700102e+00  -4.9999042e-01
1.3560000e+01  -5.7800100e+00  -4.9999060e-01
1.3580000e+01  -5.7900099e+00  -4.9999077e-01
1.3600000e+01  -5.8000097e+00  -4.9999094e-01
1.3620000e+01  -5.8100095e+00  -4.9999111e-01
1.3640000e+01  -5.8200093e+00  -4.9999128e-01
1.3660000e+01  -5.8300091e+00  -4.9999144e-01
1.3680000e+01  -5.8400090e+00  -4.9999159e-01
1.3700000e+01  -5.8500088e+00  -4.9999175e-01
1.3720000e+01  -5.8600086e+00  -4.9999190e-01
1.3740000e+01  -5.8700085e+00  -4.9999205e-01
1.3760000e+01  -5.8800083e+00  -4.9999220e-01
1.3780000e+01  -5.8900082e+00  -4.9999234e-01
1.3800000e+01  -5.9000080e+00  -4.9999248e-01
1.3820000e+01  -5.9100079e+00  -4.9999262e-01
1.3840000e+01  -5.9200077e+00  -4.9999276e-01
1.3860000e+01  -5.9300076e+00  -4.9999289e-01
1.3880000e+01  -5.9400074e+00  -4.9999302e-01
1.3900000e+01  -5.9500073e+00  -4.9999315e-01
1.3920000e+01  -5.9600072e+00  -4.9999328e-01
1.3940000e+01  -5.9700070e+00  -4.9999340e-01
1.3960000e+01  -5.9800069e+00  -4.9999353e-01
1.3980000e+01  -5.9900068e+00  -4.9999365e-01
1.4000000e+01  -6.0000067e+00  -4.9999376e-01
1.4020000e+01  -6.0100065e+00  -4.9999388e-01
1.4040000e+01  -6.0200064e+00  -4.9999399e-01
1.4060000e+01  -6.0300063e+00  -4.9999410e-01
1.4080000e+01  -6.0400062e+00  -4.9999421e-01
1.4100000e+01  -6.0500061e+00  -4.9999432e-01
1.4120000e+01  -6.0600059e+00  -4.9999442e-01
1.4140000e+01  -6.0700058e+00  -4.9999453e-01
1.4160000e+01  -6.0800057e+00  -4.9999463e-01
1.4180000e+01  -6.0900056e+00  -4.9999473e-01
1.4200000e+01  -6.1000055e+00  -4.9999483e-01
1.4220000e+01  -6.1100054e+00  -4.9999492e-01
1.4240000e+01  -6.1200053e+00  -4.9999502e-01
1.4260000e+01  -6.1300052e+00  -4.9999511e-01
1.4280000e+01  -6.1400051e+00  -4.9999520e-01
1.4300000e+01  -6.1500050e+00  -4.9999529e-01
1.4320000e+01  -6.1600049e+00  -4.9999537e-01
1.4340000e+01  -6.1700048e+00  -4.9999546e-01
1.4360000e+01  -6.1800047e+00  -4.9999554e-01
1.4380000e+01  -6.1900047e+00  -4.9999563e-01
1.4400000e+01  -6.2000046e+00  -4.9999571e-01
1.4420000e+01  -6.2100045e+00  -4.9999579e-01
1.4440000e+01  -6.2200044e+00  -4.9999587e-01
1.4460000e+01  -6.2300043e+00  -4.9999594e-01
1.4480000e+01  -6.2400042e+00  -4.9999602e-01
1.4500000e+01  -6.2500042e+00  -4.9999609e-01
1.4520000e+01  -6.2600041e+00  -4.9999616e-01
1.4540000e+01  -6.2700040e+00  -4.9999623e-01
1.4560000e+01  -6.2800039e+00  -4.9999630e-01
1.4580000e+01  -6.2900039e+00  -4.9999637e-01
1.4600000e+01  -6.3000038e+00  -4.9999644e-01
1.4620000e+01  -6.3100037e+00  -4.9999651e-01
1.4640000e+01  -6.3200036e+00  -4.9999657e-01
1.4660000e+01  -6.3300036e+00  -4.9999663e-01
1.4680000e+01  -6.3400035e+00  -4.9999670e-01
1.4700000e+01  -6.3500034e+00  -4.9999676e-01
1.4720000e+01  -6.3600034e+00  -4.9999682e-01
1.4740000e+01  -6.3700033e+00  -4.9999688e-01
1.4760000e+01  -6.3800033e+00  -4.9999694e-01
1.4780000e+01  -6.3900032e+00  -4.9999699e-01
1.4800000e+01  -6.4000031e+00  -4.9999705e-01
1.4820000e+01  -6.4100031e+00  -4.9999710e-01
1.4840000e+01  -6.4200030e+00  -4.9999716e-01
1.4860000e+01  -6.4300030e+00  -4.9999721e-01
1.4880000e+01  -6.4400029e+00  -4.9999726e-01
1.4900000e+01  -6.4500029e+00  -4.9999731e-01
1.4920000e+01  -6.4600028e+00  -4.9999736e-01
1.4940000e+01  -6.4700027e+00  -4.9999741e-01
1.4960000e+01  -6.4800027e+00  -4.9999746e-01
1.4980000e+01  -6.4900026e+00  -4.9999751e-01
1.5000000e+01  -6.5000026e+00  -4.9999755e-01
1.5020000e+01  -6.5100026e+00  -4.9999760e-01
1.5040000e+01  -6.5200025e+00  -4.9999764e-01
1.5060000e+01  -6.5300025e+00  -4.9999769e-01
1.5080000e+01  -6.5400024e+00  -4.9999773e-01
1.5100000e+01  -6.5500024e+00  -4.9999777e-01
1.5120000e+01  -6.5600023e+00  -4.9999781e-01
1.5140000e+01  -6.5700023e+00  -4.9999785e-01
1.5160000e+01  -6.5800022e+00  -4.9999789e-01
1.5180000e+01  -6.5900022e+00  -4.9999793e-01
1.5200000e+01  -6.6000022e+00  -4.9999797e-01
1.5220000e+01  -6.6100021e+00  -4.9999801e-01
1.5240000e+01  -6.6200021e+00  -4.9999805e-01
1.5260000e+01  -6.6300020e+00  -4.9999808e-01
1.5280000e+01  -6.6400020e+00  -4.9999812e-01
1.5300000e+01  -6.6500020e+00  -4.9999815e-01
1.5320000e+01  -6.6600019e+00  -4.9999819e-01
1.5340000e+01  -6.6700019e+00  -4.9999822e-01
1.5360000e+01  -6.6800019e+00  -4.9999825e-01
1.5380000e+01  -6.6900018e+00  -4.9999829e-01
1.5400000e+01  -6.7000018e+00  -4.9999832e-01
1.5420000e+01  -6.7100017e+00  -4.9999835e-01
1.5440000e+01  -6.7200017e+00  -4.9999838e-01
1.5460000e+01  -6.7300017e+00  -4.9999841e-01
1.5480000e+01  -6.7400017e+00  -4.9999844e-01
1.5500000e+01  -6.7500016e+00  -4.9999847e-01
1.5520000e+01  -6.7600016e+00  -4.9999850e-01
1.5540000e+01  -6.7700016e+00  -4.9999853e-01
1.5560000e+01  -6.7800015e+00  -4.9999855e-01
1.5580000e+01  -6.7900015e+00  -4.9999858e-01
1.5600000e+01  -6.8000015e+00  -4.9999861e-01
1.5620000e+01  -6.8100014e+00  -4.9999863e-01
1.5640000e+01  -6.8200014e+00  -4.9999866e-01
1.5660000e+01  -6.8300014e+00  -4.9999868e-01
1.5680000e+01  -6.8400014e+00  -4.9999871e-01
1.5700000e+01  -6.8500013e+00  -4.9999873e-01
1.5720000e+01  -6.8600013e+00  -4.9999876e-01
1.5740000e+01  -6.8700013e+00  -4.9999878e-01
1.5760000e+01  -6.8800013e+00  -4.9999880e-01
1.5780000e+01  -6.8900012e+00  -4.9999882e-01
1.5800000e+01  -6.9000012e+00  -4.9999885e-01
1.5820000e+01  -6.9100012e+00  -4.9999887e-01
1.5840000e+01  -6.9200012e+00  -4.9999889e-01
1.5860000e+01  -6.9300012e+00  -4.9999891e-01
1.5880000e+01  -6.9400011e+00  -4.9999893e-01
1.5900000e+01  -6.9500011e+00  -4.9999895e-01
1.5920000e+01  -6.9600011e+00  -4.9999897e-01
1.5940000e+01  -6.9700011e+00  -4.9999899e-01
1.5960000e+01  -6.9800011e+00  -4.9999901e-01
1.5980000e+01  -6.9900010e+00  -4.9999903e-01
1.6000000e+01  -7.0000010e+00  -4.9999904e-01
1.6020000e+01  -7.0100010e+00  -4.9999906e-01
1.6040000e+01  -7.0200010e+00  -4.9999908e-01
1.6060000e+01  -7.0300010e+00  -4.9999910e-01
1.6080000e+01  -7.0400009e+00  -4.9999911e-01
1.6100000e+01  -7.0500009e+00  -4.9999913e-01
1.6120000e+01  -7.0600009e+00  -4.9999915e-01
1.6140000e+01  -7.0700009e+00  -4.9999916e-01
1.6160000e+01  -7.0800009e+00  -4.9999918e-01
1.6180000e+01  -7.0900009e+00  -4.9999919e-01
1.6200000e+01  -7.1000008e+00  -4.9999921e-01
1.6220000e+01  -7.1100008e+00  -4.9999922e-01
1.6240000e+01  -7.1200008e+00  -4.9999924e-01
1.6260000e+01  -7.1300008e+00  -4.9999925e-01
1.6280000e+01  -7.1400008e+00  -4.9999927e-01
1.6300000e+01  -7.1500008e+00  -4.9999928e-01
1.6320000e+01  -7.1600007e+00  -4.9999929e-01
1.6340000e+01  -7.1700007e+00  -4.9999931e-01
1.6360000e+01  -7.1800007e+00  -4.9999932e-01
1.6380000e+01  -7.1900007e+00  -4.9999933e-01
1.6400000e+01  -7.2000007e+00  -4.9999934e-01
1.6420000e+01  -7.2100007e+00  -4.9999936e-01
1.6440000e+01  -7.2200007e+00  -4.9999937e-01
1.6460000e+01  -7.2300007e+00  -4.9999938e-01
1.6480000e+01  -7.2400006e+00  -4.9999939e-01
1.6500000e+01  -7.2500006e+00  -4.9999940e-01
1.6520000e+01  -7.2600006e+00  -4.9999941e-01
1.6540000e+01  -7.2700006e+00  -4.9999942e-01
1.6560000e+01  -7.2800006e+00  -4.9999944e-01
1.6580000e+01  -7.2900006e+00  -4.9999945e-01
1.6600000e+01  -7.3000006e+00  -4.9999946e-01
1.6620000e+01  -7.3100006e+00  -4.9999947e-01
1.6640000e+01  -7.3200006e+00  -4.9999948e-01
1.6660000e+01  -7.3300005e+00  -4.9999949e-01
1.6680000e+01  -7.3400005e+00  -4.9999950e-01
1.6700000e+01  -7.3500005e+00  -4.9999951e-01
1.6720000e+01  -7.3600005e+00  -4.9999951e-01
1.6740000e+01  -7.3700005e+00  -4.9999952e-01
1.6760000e+01  -7.3800005e+00  -4.9999953e-01
1.6780000e+01  -7.3900005e+00  -4.9999954e-01
1.6800000e+01  -7.4000005e+00  -4.9999955e-01
1.6820000e+01  -7.4100005e+00  -4.9999956e-01
1.6840000e+01  -7.4200005e+00  -4.9999957e-01
1.6860000e+01  -7.4300004e+00  -4.9999957e-01
1.6880000e+01  -7.4400004e+00  -4.9999958e-01
1.6900000e+01  -7.4500004e+00  -4.9999959e-01
1.6920000e+01  -7.4600004e+00  -4.9999960e-01
1.6940000e+01  -7.4700004e+00  -4.9999961e-01
1.6960000e+01  -7.4800004e+00  -4.9999961e-01
1.6980000e+01  -7.4900004e+00  -4.9999962e-01
1.7000000e+01  -7.5000004e+00  -4.9999963e-01
1.7020000e+01  -7.5100004e+00  -4.9999963e-01
1.7040000e+01  -7.5200004e+00  -4.9999964e-01
1.7060000e+01  -7.5300004e+00  -4.9999965e-01
1.7080000e+01  -7.5400004e+00  -4.9999965e-01
1.7100000e+01  -7.5500004e+00  -4.9999966e-01
1.7120000e+01  -7.5600003e+00  -4.9999967e-01
1.7140000e+01  -7.5700003e+00  -4.9999967e-01
1.7160000e+01  -7.5800003e+00  -4.9999968e-01
1.7180000e+01  -7.5900003e+00  -4.9999969e-01
1.7200000e+01  -7.6000003e+00  -4.9999969e-01
1.7220000e+01  -7.6100003e+00  -4.9999970e-01
1.7240000e+01  -7.6200003e+00  -4.9999970e-01
1.7260000e+01  -7.6300003e+00  -4.9999971e-01
1.7280000e+01  -7.6400003e+00  -4.9999971e-01
1.7300000e+01  -7.6500003e+00  -4.9999972e-01
1.7320000e+01  -7.6600003e+00  -4.9999972e-01
1.7340000e+01  -7.6700003e+00  -4.9999973e-01
1.7360000e+01  -7.6800003e+00  -4.9999973e-01
1.7380000e+01  -7.6900003e+00  -4.9999974e-01
1.7400000e+01  -7.7000003e+00  -4.9999974e-01
1.7420000e+01  -7.7100003e+00  -4.9999975e-01
1.7440000e+01  -7.7200003e+00  -4.9999975e-01
1.7460000e+01  -7.7300003e+00  -4.9999976e-01
1.7480000e+01  -7.7400002e+00  -4.9999976e-01
1.7500000e+01  -7.7500002e+00  -4.9999977e-01
1.7520000e+01  -7.7600002e+00  -4.9999977e-01
1.7540000e+01  -7.7700002e+00  -4.9999978e-01
1.7560000e+01  -7.7800002e+00  -4.9999978e-01
1.7580000e+01  -7.7900002e+00  -4.9999978e-01
1.7600000e+01  -7.8000002e+00  -4.9999979e-01
1.7620000e+01  -7.8100002e+00  -4.9999979e-01
1.7640000e+01  -7.8200002e+00  -4.9999980e-01
1.7660000e+01  -7.8300002e+00  -4.9999980e-01
1.7680000e+01  -7.8400002e+00  -4.9999980e-01
1.7700000e+01  -7.8500002e+00  -4.9999981e-01
1.7720000e+01  -7.8600002e+00  -4.9999981e-01
1.7740000e+01  -7.8700002e+00  -4.9999981e-01
1.7760000e+01  -7.8800002e+00  -4.9999982e-01
1.7780000e+01  -7.8900002e+00  -4.9999982e-01
1.7800000e+01  -7.9000002e+00  -4.9999983e-01
1.7820000e+01  -7.9100002e+00  -4.9999983e-01
1.7840000e+01  -7.9200002e+00  -4.9999983e-01
1.7860000e+01  -7.9300002e+00  -4.9999983e-01
1.7880000e+01  -7.9400002e+00  -4.9999984e-01
1.7900000e+01  -7.9500002e+00  -4.9999984e-01
1.7920000e+01  -7.9600002e+00  -4.9999984e-01
1.7940000e+01  -7.9700002e+00  -4.9999985e-01
1.7960000e+01  -7.9800002e+00  -4.9999985e-01
1.7980000e+01  -7.9900002e+00  -4.9999985e-01
1.8000000e+01  -8.0000002e+00  -4.9999986e-01
1.8020000e+01  -8.0100001e+00  -4.9999986e-01
1.8040000e+01  -8.0200001e+00  -4.9999986e-01
1.8060000e+01  -8.0300001e+00  -4.9999986e-01
1.8080000e+01  -8.0400001e+00  -4.9999987e-01
1.8100000e+01  -8.0500001e+00  -4.9999987e-01
1.8120000e+01  -8.0600001e+00  -4.9999987e-01
1.8140000e+01  -8.0700001e+00  -4.9999987e-01
1.8160000e+01  -8.0800001e+00  -4.9999988e-01
1.8180000e+01  -8.0900001e+00  -4.9999988e-01
1.8200000e+01  -8.1000001e+00  -4.9999988e-01
1.8220000e+01  -8.1100001e+00  -4.9999988e-01
1.8240000e+01  -8.1200001e+00  -4.9999988e-01
1.8260000e+01  -8.1300001e+00  -4.9999989e-01
1.8280000e+01  -8.1400001e+00  -4.9999989e-01
1.8300000e+01  -8.1500001e+00  -4.9999989e-01
1.8320000e+01  -8.1600001e+00  -4.9999989e-01
1.8340000e+01  -8.1700001e+00  -4.9999990e-01
1.8360000e+01  -8.1800001e+00  -4.9999990e-01
1.8380000e+01  -8.1900001e+00  -4.9999990e-01
1.8400000e+01  -8.2000001e+00  -4.9999990e-01
1.8420000e+01  -8.2100001e+00  -4.9999990e-01
1.8440000e+01  -8.2200001e+00  -4.9999990e-01
1.8460000e+01  -8.2300001e+00  -4.9999991e-01
1.8480000e+01  -8.2400001e+00  -4.9999991e-01
1.8500000e+01  -8.2500001e+00  -4.9999991e-01
1.8520000e+01  -8.2600001e+00  -4.9999991e-01
1.8540000e+01  -8.2700001e+00  -4.9999991e-01
1.8560000e+01  -8.2800001e+00  -4.9999991e-01
1.8580000e+01  -8.2900001e+00  -4.9999992e-01
1.8600000e+01  -8.3000001e+00  -4.9999992e-01
1.8620000e+01  -8.3100001e+00  -4.9999992e-01
1.8640000e+01  -8.3200001e+00  -4.9999992e-01
1.8660000e+01  -8.3300001e+00  -4.9999992e-01
1.8680000e+01  -8.3400001e+00  -4.9999992e-01
1.8700000e+01  -8.3500001e+00  -4.9999993e-01
1.8720000e+01  -8.3600001e+00  -4.9999993e-01
1.8740000e+01  -8.3700001e+00  -4.9999993e-01
1.8760000e+01  -8.3800001e+00  -4.9999993e-01
1.8780000e+01  -8.3900001e+00  -4.9999993e-01
1.8800000e+01  -8.4000001e+00  -4.9999993e-01
1.8820000e+01  -8.4100001e+00  -4.9999993e-01
1.8840000e+01  -8.4200001e+00  -4.9999993e-01
1.8860000e+01  -8.4300001e+00  -4.9999994e-01
1.8880000e+01  -8.4400001e+00  -4.9999994e-01
1.8900000e+01  -8.4500001e+00  -4.9999994e-01
1.8920000e+01  -8.4600001e+00  -4.9999994e-01
1.8940000e+01  -8.4700001e+00  -4.9999994e-01
1.8960000e+01  -8.4800001e+00  -4.9999994e-01
1.8980000e+01  -8.4900001e+00  -4.9999994e-01
1.9000000e+01  -8.5000001e+00  -4.9999994e-01
1.9020000e+01  -8.5100001e+00  -4.9999994e-01
1.9040000e+01  -8.5200001e+00  -4.9999995e-01
1.9060000e+01  -8.5300001e+00  -4.9999995e-01
1.9080000e+01  -8.5400001e+00  -4.9999995e-01
1.9100000e+01  -8.5500001e+00  -4.9999995e-01
1.9120000e+01  -8.5600001e+00  -4.9999995e-01
1.9140000e+01  -8.5700000e+00  -4.9999995e-01
1.9160000e+01  -8.5800000e+00  -4.9999995e-01
1.9180000e+01  -8.5900000e+00  -4.9999995e-01
1.9200000e+01  -8.6000000e+00  -4.9999995e-01
1.9220000e+01  -8.6100000e+00  -4.9999995e-01
1.9240000e+01  -8.6200000e+00  -4.9999996e-01
1.9260000e+01  -8.6300000e+00  -4.9999996e-01
1.9280000e+01  -8.6400000e+00  -4.9999996e-01
1.9300000e+01  -8.6500000e+00  -4.9999996e-01
1.9320000e+01  -8.6600000e+00  -4.9999996e-01
1.9340000e+01  -8.6700000e+00  -4.9999996e-01
1.9360000e+01  -8.6800000e+00  -4.9999996e-01
1.9380000e+01  -8.6900000e+00  -4.9999996e-01
1.9400000e+01  -8.7000000e+00  -4.9999996e-01
1.9420000e+01  -8.7100000e+00  -4.9999996e-01
1.9440000e+01  -8.7200000e+00  -4.9999996e-01
1.9460000e+01  -8.7300000e+00  -4.9999996e-01
1.9480000e+01  -8.7400000e+00  -4.9999996e-01
1.9500000e+01  -8.7500000e+00  -4.9999997e-01
1.9520000e+01  -8.7600000e+00  -4.9999997e-01
1.9540000e+01  -8.7700000e+00  -4.9999997e-01
1.9560000e+01  -8.7800000e+00  -4.9999997e-01
1.9580000e+01  -8.7900000e+00  -4.9999997e-01
1.9600000e+01  -8.8000000e+00  -4.9999997e-01
1.9620000e+01  -8.8100000e+00  -4.9999997e-01
1.9640000e+01  -8.8200000e+00  -4.9999997e-01
1.9660000e+01  -8.8300000e+00  -4.9999997e-01
1.9680000e+01  -8.8400000e+00  -4.9999997e-01
1.9700000e+01  -8.8500000e+00  -4.9999997e-01
1.9720000e+01  -8.8600000e+00  -4.9999997e-01
1.9740000e+01  -8.8700000e+00  -4.9999997e-01
1.9760000e+01  -8.8800000e+00  -4.9999997e-01
1.9780000e+01  -8.8900000e+00  -4.9999997e-01
1.9800000e+01  -8.9000000e+00  -4.9999997e-01
1.9820000e+01  -8.9100000e+00  -4.9999997e-01
1.9840000e+01  -8.9200000e+00  -4.9999997e-01
1.9860000e+01  -8.9300000e+00  -4.9999998e-01
1.9880000e+01  -8.9400000e+00  -4.9999998e-01
1.9900000e+01  -8.9500000e+00  -4.9999998e-01
1.9920000e+01  -8.9600000e+00  -4.9999998e-01
1.9940000e+01  -8.9700000e+00  -4.9999998e-01
1.9960000e+01  -8.9800000e+00  -4.9999998e-01
1.9980000e+01  -8.9900000e+00  -4.9999998e-01
2.0000000e+01  -9.0000000e+00  -4.9999998e-01


0.0000000e+00  0.0000000e+00  2.0000000e-01
2.0000000e-02  3.9993400e-03  1.9990132e-01
4.0000000e-02  7.9947721e-03  1.9961051e-01
6.0000000e-02  1.1982530e-02  1.9913520e-01
8.0000000e-02  1.5959000e-02  1.9848283e-01
1.0000000e-01  1.9920711e-02  1.9766058e-01
1.2000000e-01  2.3864337e-02  1.9667544e-01
1.4000000e-01  2.7786688e-02  1.9553419e-01
1.6000000e-01  3.1684708e-02  1.9424340e-01
1.8000000e-01  3.5555470e-02  1.9280942e-01
2.0000000e-01  3.9396172e-02  1.9123845e-01
2.2000000e-01  4.3204134e-02  1.8953647e-01
2.4000000e-01  4.6976796e-02  1.8770927e-01
2.6000000e-01  5.0711708e-02  1.8576250e-01
2.8000000e-01  5.4406535e-02  1.8370159e-01
3.0000000e-01  5.8059046e-02  1.8153184e-01
3.2000000e-01  6.1667117e-02  1.7925836e-01
3.4000000e-01  6.5228722e-02  1.7688612e-01
3.6000000e-01  6.8741935e-02  1.7441990e-01
3.8000000e-01  7.2204923e-02  1.7186437e-01
4.0000000e-01  7.5615945e-02  1.6922403e-01
4.2000000e-01  7.8973348e-02  1.6650324e-01
4.4000000e-01  8.2275566e-02  1.6370622e-01
4.6000000e-01  8.5521116e-02  1.6083706e-01
4.8000000e-01  8.8708594e-02  1.5789971e-01
5.0000000e-01  9.1836675e-02  1.5489799e-01
5.2000000e-01  9.4904110e-02  1.5183562e-01
5.4000000e-01  9.7909720e-02  1.4871615e-01
5.6000000e-01  1.0085240e-01  1.4554307e-01
5.8000000e-01  1.0373111e-01  1.4231971e-01
6.0000000e-01  1.0654487e-01  1.3904931e-01
6.2000000e-01  1.0929279e-01  1.3573499e-01
6.4000000e-01  1.1197400e-01  1.3237979e-01
6.6000000e-01  1.1458773e-01  1.2898661e-01
6.8000000e-01  1.1713323e-01  1.2555827e-01
7.0000000e-01  1.1960984e-01  1.2209751e-01
7.2000000e-01  1.2201693e-01  1.1860694e-01
7.4000000e-01  1.2435394e-01  1.1508911e-01
7.6000000e-01  1.2662033e-01  1.1154646e-01
7.8000000e-01  1.2881564e-01  1.0798135e-01
8.0000000e-01  1.3093945e-01  1.0439607e-01
8.2000000e-01  1.3299137e-01  1.0079281e-01
8.4000000e-01  1.3497106e-01  9.7173682e-02
8.6000000e-01  1.3687822e-01  9.3540737e-02
8.8000000e-01  1.3871261e-01  8.9895937e-02
9.0000000e-01  1.4047399e-01  8.6241177e-02
9.2000000e-01  1.4216220e-01  8.2578280e-02
9.4000000e-01  1.4377708e-01  7.8909000e-02
9.6000000e-01  1.4531853e-01  7.5235028e-02
9.8000000e-01  1.4678646e-01  7.1557988e-02
1.0000000e+00  1.4818084e-01  6.7879441e-02
1.0200000e+00  1.4950164e-01  6.4200890e-02
1.0400000e+00  1.5074888e-01  6.0523776e-02
1.0600000e+00  1.5192261e-01  5.6849485e-02
1.0800000e+00  1.5302289e-01  5.3179347e-02
1.1000000e+00  1.5404982e-01  4.9514638e-02
1.1200000e+00  1.5500352e-01  4.5856582e-02
1.1400000e+00  1.5588414e-01  4.2206353e-02
1.1600000e+00  1.5669183e-01  3.8565075e-02
1.1800000e+00  1.5742681e-01  3.4933825e-02
1.2000000e+00  1.5808926e-01  3.1313633e-02
1.2200000e+00  1.5867943e-01  2.7705485e-02
1.2400000e+00  1.5919757e-01  2.4110324e-02
1.2600000e+00  1.5964394e-01  2.0529050e-02
1.2800000e+00  1.6001883e-01  1.6962523e-02
1.3000000e+00  1.6032254e-01  1.3411562e-02
1.3200000e+00  1.6055540e-01  9.8769504e-03
1.3400000e+00  1.6071773e-01  6.3594323e-03
1.3600000e+00  1.6080989e-01  2.8597169e-03
1.3800000e+00  1.6083225e-01  -6.2152179e-04
1.4000000e+00  1.6078516e-01  -4.0836432e-03
1.4200000e+00  1.6066903e-01  -7.5260395e-03
1.4400000e+00  1.6048426e-01  -1.0948134e-02
1.4600000e+00  1.6023124e-01  -1.4349382e-02
1.4800000e+00  1.5991042e-01  -1.7729266e-02
1.5000000e+00  1.5952222e-01  -2.1087300e-02
1.5200000e+00  1.5906708e-01  -2.4423022e-02
1.5400000e+00  1.5854545e-01  -2.7736001e-02
1.5600000e+00  1.5795779e-01  -3.1025829e-02
1.5800000e+00  1.5730457e-01  -3.4292123e-02
1.6000000e+00  1.5658627e-01  -3.7534527e-02
1.6200000e+00  1.5580335e-01  -4.0752704e-02
1.6400000e+00  1.5495632e-01  -4.3946344e-02
1.6600000e+00  1.5404567e-01  -4.7115156e-02
1.6800000e+00  1.5307188e-01  -5.0258872e-02
1.7000000e+00  1.5203548e-01  -5.3377242e-02
1.7200000e+00  1.5093697e-01  -5.6470039e-02
1.7400000e+00  1.4977685e-01  -5.9537051e-02
1.7600000e+00  1.4855566e-01  -6.2578088e-02
1.7800000e+00  1.4727390e-01  -6.5592975e-02
1.8000000e+00  1.4593211e-01  -6.8581556e-02
1.8200000e+00  1.4453082e-01  -7.1543691e-02
1.8400000e+00  1.4307054e-01  -7.4479255e-02
1.8600000e+00  1.4155182e-01  -7.7388138e-02
1.8800000e+00  1.3997520e-01  -8.0270248e-02
1.9000000e+00  1.3834119e-01  -8.3125502e-02
1.9200000e+00  1.3665035e-01  -8.5953835e-02
1.9400000e+00  1.3490322e-01  -8.8755194e-02
1.9600000e+00  1.3310033e-01  -9.1529537e-02
1.9800000e+00  1.3124222e-01  -9.4276836e-02
2.0000000e+00  1.2932943e-01  -9.6997075e-02
2.0200000e+00  1.2736252e-01  -9.9690248e-02
2.0400000e+00  1.2534200e-01  -1.0235636e-01
2.0600000e+00  1.2326844e-01  -1.0499543e-01
2.0800000e+00  1.2114237e-01  -1.0760747e-01
2.1000000e+00  1.1896432e-01  -1.1019254e-01
2.1200000e+00  1.1673485e-01  -1.1275066e-01
2.1400000e+00  1.1445448e-01  -1.1528190e-01
2.1600000e+00  1.1212375e-01  -1.1778631e-01
2.1800000e+00  1.0974320e-01  -1.2026397e-01
2.2000000e+00  1.0731337e-01  -1.2271495e-01
2.2200000e+00  1.0483478e-01  -1.2513933e-01
2.2400000e+00  1.0230797e-01  -1.2753722e-01
2.2600000e+00  9.9733468e-02  -1.2990871e-01
2.2800000e+00  9.7111798e-02  -1.3225390e-01
2.3000000e+00  9.4443486e-02  -1.3457291e-01
2.3200000e+00  9.1729055e-02  -1.3686585e-01
2.3400000e+00  8.8969025e-02  -1.3913284e-01
2.3600000e+00  8.6163914e-02  -1.4137402e-01
2.3800000e+00  8.3314236e-02  -1.4358952e-01
2.4000000e+00  8.0420503e-02  -1.4577948e-01
2.4200000e+00  7.7483226e-02  -1.4794403e-01
2.4400000e+00  7.4502910e-02  -1.5008334e-01
2.4600000e+00  7.1480060e-02  -1.5219753e-01
2.4800000e+00  6.8415175e-02  -1.5428679e-01
2.5000000e+00  6.5308753e-02  -1.5635125e-01
2.5200000e+00  6.2161289e-02  -1.5839109e-01
2.5400000e+00  5.8973273e-02  -1.6040647e-01
2.5600000e+00  5.5745192e-02  -1.6239756e-01
2.5800000e+00  5.2477531e-02  -1.6436453e-01
2.6000000e+00  4.9170770e-02  -1.6630756e-01
2.6200000e+00  4.5825387e-02  -1.6822682e-01
2.6400000e+00  4.2441855e-02  -1.7012249e-01
2.6600000e+00  3.9020644e-02  -1.7199475e-01
2.6800000e+00  3.5562220e-02  -1.7384380e-01
2.7000000e+00  3.2067045e-02  -1.7566980e-01
2.7200000e+00  2.8535580e-02  -1.7747296e-01
2.7400000e+00  2.4968278e-02  -1.7925345e-01
2.7600000e+00  2.1365592e-02  -1.8101148e-01
2.7800000e+00  1.7727968e-02  -1.8274722e-01
2.8000000e+00  1.4055850e-02  -1.8446088e-01
2.8200000e+00  1.0349678e-02  -1.8615265e-01
2.8400000e+00  6.6098888e-03  -1.8782272e-01
2.8600000e+00  2.8369130e-03  -1.8947129e-01
2.8800000e+00  -9.6882090e-04  -1.9109856e-01
2.9000000e+00  -4.8068887e-03  -1.9270472e-01
2.9200000e+00  -8.6768703e-03  -1.9428997e-01
2.9400000e+00  -1.2578350e-02  -1.9585451e-01
2.9600000e+00  -1.6510914e-02  -1.9739854e-01
2.9800000e+00  -2.0474156e-02  -1.9892226e-01
3.0000000e+00  -2.4467670e-02  -2.0042586e-01
3.0200000e+00  -2.8491058e-02  -2.0190955e-01
3.0400000e+00  -3.2543921e-02  -2.0337352e-01
3.0600000e+00  -3.6625868e-02  -2.0481798e-01
3.0800000e+00  -4.0736511e-02  -2.0624312e-01
3.1000000e+00  -4.4875466e-02  -2.0764914e-01
3.1200000e+00  -4.9042351e-02  -2.0903623e-01
3.1400000e+00  -5.3236790e-02  -2.1040461e-01
3.1600000e+00  -5.7458412e-02  -2.1175446e-01
3.1800000e+00  -6.1706846e-02  -2.1308598e-01
3.2000000e+00  -6.5981730e-02  -2.1439937e-01
3.2200000e+00  -7.0282702e-02  -2.1569483e-01
3.2400000e+00  -7.4609405e-02  -2.1697254e-01
3.2600000e+00  -7.8961486e-02  -2.1823271e-01
3.2800000e+00  -8.3338598e-02  -2.1947553e-01
3.3000000e+00  -8.7740393e-02  -2.2070119e-01
3.3200000e+00  -9.2166532e-02  -2.2190988e-01
3.3400000e+00  -9.6616677e-02  -2.2310180e-01
3.3600000e+00  -1.0109049e-01  -2.2427714e-01
3.3800000e+00  -1.0558765e-01  -2.2543607e-01
3.4000000e+00  -1.1010783e-01  -2.2657881e-01
3.4200000e+00  -1.1465070e-01  -2.2770552e-01
3.4400000e+00  -1.1921594e-01  -2.2881640e-01
3.4600000e+00  -1.2380325e-01  -2.2991163e-01
3.4800000e+00  -1.2841231e-01  -2.3099140e-01
3.5000000e+00  -1.3304280e-01  -2.3205589e-01
3.5200000e+00  -1.3769444e-01  -2.3310528e-01
3.5400000e+00  -1.4236692e-01  -2.3413975e-01
3.5600000e+00  -1.4705993e-01  -2.3515948e-01
3.5800000e+00  -1.5177320e-01  -2.3616465e-01
3.6000000e+00  -1.5650642e-01  -2.3715544e-01
3.6200000e+00  -1.6125932e-01  -2.3813202e-01
3.6400000e+00  -1.6603161e-01  -2.3909456e-01
3.6600000e+00  -1.7082301e-01  -2.4004325e-01
3.6800000e+00  -1.7563325e-01  -2.4097824e-01
3.7000000e+00  -1.8046205e-01  -2.4189971e-01
3.7200000e+00  -1.8530915e-01  -2.4280784e-01
3.7400000e+00  -1.9017428e-01  -2.4370278e-01
3.7600000e+00  -1.9505717e-01  -2.4458470e-01
3.7800000e+00  -1.9995758e-01  -2.4545377e-01
3.8000000e+00  -2.0487524e-01  -2.4631015e-01
3.8200000e+00  -2.0980990e-01  -2.4715400e-01
3.8400000e+00  -2.1476132e-01  -2.4798548e-01
3.8600000e+00  -2.1972924e-01  -2.4880476e-01
3.8800000e+00  -2.2471343e-01  -2.4961199e-01
3.9000000e+00  -2.2971364e-01  -2.5040732e-01
3.9200000e+00  -2.3472964e-01  -2.5119091e-01
3.9400000e+00  -2.3976120e-01  -2.5196291e-01
3.9600000e+00  -2.4480808e-01  -2.5272348e-01
3.9800000e+00  -2.4987006e-01  -2.5347276e-01
4.0000000e+00  -2.5494692e-01  -2.5421090e-01
4.0200000e+00  -2.6003842e-01  -2.5493806e-01
4.0400000e+00  -2.6514437e-01  -2.5565437e-01
4.0600000e+00  -2.7026453e-01  -2.5635998e-01
4.0800000e+00  -2.7539870e-01  -2.5705504e-01
4.1000000e+00  -2.8054666e-01  -2.5773968e-01
4.1200000e+00  -2.8570821e-01  -2.5841404e-01
4.1400000e+00  -2.9088315e-01  -2.5907827e-01
4.1600000e+00  -2.9607128e-01  -2.5973250e-01
4.1800000e+00  -3.0127239e-01  -2.6037687e-01
4.2000000e+00  -3.0648629e-01  -2.6101150e-01
4.2200000e+00  -3.1171278e-01  -2.6163654e-01
4.2400000e+00  -3.1695169e-01  -2.6225211e-01
4.2600000e+00  -3.2220281e-01  -2.6285834e-01
4.2800000e+00  -3.2746596e-01  -2.6345537e-01
4.3000000e+00  -3.3274096e-01  -2.6404332e-01
4.3200000e+00  -3.3802763e-01  -2.6462231e-01
4.3400000e+00  -3.4332579e-01  -2.6519247e-01
4.3600000e+00  -3.4863527e-01  -2.6575392e-01
4.3800000e+00  -3.5395589e-01  -2.6630679e-01
4.4000000e+00  -3.5928749e-01  -2.6685118e-01
4.4200000e+00  -3.6462989e-01  -2.6738723e-01
4.4400000e+00  -3.6998292e-01  -2.6791505e-01
4.4600000e+00  -3.7534643e-01  -2.6843475e-01
4.4800000e+00  -3.8072026e-01  -2.6894645e-01
4.5000000e+00  -3.8610424e-01  -2.6945026e-01
4.5200000e+00  -3.9149822e-01  -2.6994629e-01
4.5400000e+00  -3.9690204e-01  -2.7043466e-01
4.5600000e+00  -4.0231555e-01  -2.7091548e-01
4.5800000e+00  -4.0773861e-01  -2.7138884e-01
4.6000000e+00  -4.1317106e-01  -2.7185486e-01
4.6200000e+00  -4.1861275e-01  -2.7231364e-01
4.6400000e+00  -4.2406356e-01  -2.7276529e-01
4.6600000e+00  -4.2952332e-01  -2.7320991e-01
4.6800000e+00  -4.3499191e-01  -2.7364760e-01
4.7000000e+00  -4.4046918e-01  -2.7407846e-01
4.7200000e+00  -4.4595500e-01  -2.7450259e-01
4.7400000e+00  -4.5144924e-01  -2.7492009e-01
4.7600000e+00  -4.5695176e-01  -2.7533104e-01
4.7800000e+00  -4.6246244e-01  -2.7573556e-01
4.8000000e+00  -4.6798114e-01  -2.7613373e-01
4.8200000e+00  -4.7350774e-01  -2.7652565e-01
4.8400000e+00  -4.7904212e-01  -2.7691140e-01
4.8600000e+00  -4.8458416e-01  -2.7729108e-01
4.8800000e+00  -4.9013373e-01  -2.7766478e-01
4.9000000e+00  -4.9569071e-01  -2.7803258e-01
4.9200000e+00  -5.0125499e-01  -2.7839457e-01
4.9400000e+00  -5.0682646e-01  -2.7875084e-01
4.9600000e+00  -5.1240499e-01  -2.7910147e-01
4.9800000e+00  -5.1799048e-01  -2.7944655e-01
5.0000000e+00  -5.2358281e-01  -2.7978616e-01
5.0200000e+00  -5.2918189e-01  -2.8012037e-01
5.0400000e+00  -5.3478759e-01  -2.8044928e-01
5.0600000e+00  -5.4039982e-01  -2.8077295e-01
5.0800000e+00  -5.4601848e-01  -2.8109148e-01
5.1000000e+00  -5.5164345e-01  -2.8140492e-01
5.1200000e+00  -5.5727464e-01  -2.8171337e-01
5.1400000e+00  -5.6291195e-01  -2.8201689e-01
5.1600000e+00  -5.6855528e-01  -2.8231556e-01
5.1800000e+00  -5.7420454e-01  -2.8260946e-01
5.2000000e+00  -5.7985963e-01  -2.8289865e-01
5.2200000e+00  -5.8552046e-01  -2.8318321e-01
5.2400000e+00  -5.9118693e-01  -2.8346320e-01
5.2600000e+00  -5.9685896e-01  -2.8373870e-01
5.2800000e+00  -6.0253645e-01  -2.8400977e-01
5.3000000e+00  -6.0821932e-01  -2.8427648e-01
5.3200000e+00  -6.1390748e-01  -2.8453890e-01
5.3400000e+00  -6.1960084e-01  -2.8479709e-01
5.3600000e+00  -6.2529933e-01  -2.8505112e-01
5.3800000e+00  -6.3100286e-01  -2.8530105e-01
5.4000000e+00  -6.3671135e-01  -2.8554694e-01
5.4200000e+00  -6.4242471e-01  -2.8578886e-01
5.4400000e+00  -6.4814288e-01  -2.8602686e-01
5.4600000e+00  -6.5386576e-01  -2.8626101e-01
5.4800000e+00  -6.5959329e-01  -2.8649137e-01
5.5000000e+00  -6.6532539e-01  -2.8671799e-01
5.5200000e+00  -6.7106199e-01  -2.8694094e-01
5.5400000e+00  -6.7680301e-01  -2.8716026e-01
5.5600000e+00  -6.8254837e-01  -2.8737601e-01
5.5800000e+00  -6.8829802e-01  -2.8758826e-01
5.6000000e+00  -6.9405188e-01  -2.8779705e-01
5.6200000e+00  -6.9980988e-01  -2.8800244e-01
5.6400000e+00  -7.0557196e-01  -2.8820448e-01
5.6600000e+00  -7.1133804e-01  -2.8840322e-01
5.6800000e+00  -7.1710806e-01  -2.8859871e-01
5.7000000e+00  -7.2288197e-01  -2.8879102e-01
5.7200000e+00  -7.2865968e-01  -2.8898017e-01
5.7400000e+00  -7.3444115e-01  -2.8916623e-01
5.7600000e+00  -7.4022631e-01  -2.8934924e-01
5.7800000e+00  -7.4601510e-01  -2.8952925e-01
5.8000000e+00  -7.5180746e-01  -2.8970631e-01
5.8200000e+00  -7.5760334e-01  -2.8988047e-01
5.8400000e+00  -7.6340266e-01  -2.9005176e-01
5.8600000e+00  -7.6920539e-01  -2.9022023e-01
5.8800000e+00  -7.7501145e-01  -2.9038594e-01
5.9000000e+00  -7.8082081e-01  -2.9054892e-01
5.9200000e+00  -7.8663339e-01  -2.9070921e-01
5.9400000e+00  -7.9244916e-01  -2.9086686e-01
5.9600000e+00  -7.9826805e-01  -2.9102191e-01
5.9800000e+00  -8.0409002e-01  -2.9117440e-01
6.0000000e+00  -8.0991501e-01  -2.9132437e-01
6.0200000e+00  -8.1574297e-01  -2.9147186e-01
6.0400000e+00  -8.2157387e-01  -2.9161691e-01
6.0600000e+00  -8.2740763e-01  -2.9175956e-01
6.0800000e+00  -8.3324423e-01  -2.9189985e-01
6.1000000e+00  -8.3908361e-01  -2.9203782e-01
6.1200000e+00  -8.4492573e-01  -2.9217350e-01
6.1400000e+00  -8.5077054e-01  -2.9230692e-01
6.1600000e+00  -8.5661799e-01  -2.9243813e-01
6.1800000e+00  -8.6246805e-01  -2.9256716e-01
6.2000000e+00  -8.6832066e-01  -2.9269405e-01
6.2200000e+00  -8.7417580e-01  -2.9281882e-01
6.2400000e+00  -8.8003340e-01  -2.9294152e-01
6.2600000e+00  -8.8589344e-01  -2.9306218e-01
6.2800000e+00  -8.9175588e-01  -2.9318082e-01
6.3000000e+00  -8.9762066e-01  -2.9329749e-01
6.3200000e+00  -9.0348776e-01  -2.9341221e-01
6.3400000e+00  -9.0935714e-01  -2.9352501e-01
6.3600000e+00  -9.1522875e-01  -2.9363593e-01
6.3800000e+00  -9.2110256e-01  -2.9374500e-01
6.4000000e+00  -9.2697854e-01  -2.9385224e-01
6.4200000e+00  -9.3285664e-01  -2.9395769e-01
6.4400000e+00  -9.3873684e-01  -2.9406137e-01
6.4600000e+00  -9.4461909e-01  -2.9416331e-01
6.4800000e+00  -9.5050336e-01  -2.9426355e-01
6.5000000e+00  -9.5638962e-01  -2.9436210e-01
6.5200000e+00  -9.6227783e-01  -2.9445900e-01
6.5400000e+00  -9.6816797e-01  -2.9455428e-01
6.5600000e+00  -9.7405999e-01  -2.9464795e-01
6.5800000e+00  -9.7995387e-01  -2.9474005e-01
6.6000000e+00  -9.8584958e-01  -2.9483060e-01
6.6200000e+00  -9.9174709e-01  -2.9491963e-01
6.6400000e+00  -9.9764636e-01  -2.9500716e-01
6.6600000e+00  -1.0035474e+00  -2.9509321e-01
6.6800000e+00  -1.0094501e+00  -2.9517781e-01
6.7000000e+00  -1.0153545e+00  -2.9526099e-01
6.7200000e+00  -1.0212605e+00  -2.9534276e-01
6.7400000e+00  -1.0271682e+00  -2.9542316e-01
6.7600000e+00  -1.0330774e+00  -2.9550219e-01
6.7800000e+00  -1.0389882e+00  -2.9557989e-01
6.8000000e+00  -1.0449006e+00  -2.9565628e-01
6.8200000e+00  -1.0508145e+00  -2.9573137e-01
6.8400000e+00  -1.0567299e+00  -2.9580519e-01
6.8600000e+00  -1.0626467e+00  -2.9587777e-01
6.8800000e+00  -1.0685650e+00  -2.9594911e-01
6.9000000e+00  -1.0744846e+00  -2.9601925e-01
6.9200000e+00  -1.0804057e+00  -2.9608819e-01
6.9400000e+00  -1.0863282e+00  -2.9615597e-01
6.9600000e+00  -1.0922520e+00  -2.9622260e-01
6.9800000e+00  -1.0981771e+00  -2.9628809e-01
7.0000000e+00  -1.1041035e+00  -2.9635247e-01
7.0200000e+00  -1.1100312e+00  -2.9641576e-01
7.0400000e+00  -1.1159601e+00  -2.9647797e-01
7.0600000e+00  -1.1218903e+00  -2.9653912e-01
7.0800000e+00  -1.1278216e+00  -2.9659924e-01
7.1000000e+00  -1.1337542e+00  -2.9665832e-01
7.1200000e+00  -1.1396880e+00  -2.9671641e-01
7.1400000e+00  -1.1456229e+00  -2.9677350e-01
7.1600000e+00  -1.1515589e+00  -2.9682962e-01
7.1800000e+00  -1.1574961e+00  -2.9688478e-01
7.2000000e+00  -1.1634343e+00  -2.9693900e-01
7.2200000e+00  -1.1693736e+00  -2.9699229e-01
7.2400000e+00  -1.1753140e+00  -2.9704468e-01
7.2600000e+00  -1.1812554e+00  -2.9709616e-01
7.2800000e+00  -1.1871978e+00  -2.9714677e-01
7.3000000e+00  -1.1931413e+00  -2.9719651e-01
7.3200000e+00  -1.1990857e+00  -2.9724541e-01
7.3400000e+00  -1.2050311e+00  -2.9729346e-01
7.3600000e+00  -1.2109774e+00  -2.9734069e-01
7.3800000e+00  -1.2169247e+00  -2.9738711e-01
7.4000000e+00  -1.2228729e+00  -2.9743274e-01
7.4200000e+00  -1.2288220e+00  -2.9747758e-01
7.4400000e+00  -1.2347720e+00  -2.9752166e-01
7.4600000e+00  -1.2407229e+00  -2.9756497e-01
7.4800000e+00  -1.2466746e+00  -2.9760755e-01
7.5000000e+00  -1.2526271e+00  -2.9764939e-01
7.5200000e+00  -1.2585806e+00  -2.9769052e-01
7.5400000e+00  -1.2645348e+00  -2.9773093e-01
7.5600000e+00  -1.2704898e+00  -2.9777065e-01
7.5800000e+00  -1.2764456e+00  -2.9780969e-01
7.6000000e+00  -1.2824022e+00  -2.9784806e-01
7.6200000e+00  -1.2883595e+00  -2.9788576e-01
7.6400000e+00  -1.2943176e+00  -2.9792282e-01
7.6600000e+00  -1.3002764e+00  -2.9795924e-01
7.6800000e+00  -1.3062360e+00  -2.9799503e-01
7.7000000e+00  -1.3121962e+00  -2.9803020e-01
7.7200000e+00  -1.3181572e+00  -2.9806477e-01
7.7400000e+00  -1.3241188e+00  -2.9809874e-01
7.7600000e+00  -1.3300811e+00  -2.9813212e-01
7.7800000e+00  -1.3360441e+00  -2.9816493e-01
7.8000000e+00  -1.3420077e+00  -2.9819717e-01
7.8200000e+00  -1.3479720e+00  -2.9822885e-01
7.8400000e+00  -1.3539369e+00  -2.9825998e-01
7.8600000e+00  -1.3599024e+00  -2.9829058e-01
7.8800000e+00  -1.3658685e+00  -2.9832065e-01
7.9000000e+00  -1.3718352e+00  -2.9835019e-01
7.9200000e+00  -1.3778025e+00  -2.9837923e-01
7.9400000e+00  -1.3837703e+00  -2.9840776e-01
7.9600000e+00  -1.3897388e+00  -2.9843579e-01
7.9800000e+00  -1.3957078e+00  -2.9846334e-01
8.0000000e+00  -1.4016773e+00  -2.9849042e-01
8.0200000e+00  -1.4076474e+00  -2.9851702e-01
8.0400000e+00  -1.4136180e+00  -2.9854316e-01
8.0600000e+00  -1.4195891e+00  -2.9856885e-01
8.0800000e+00  -1.4255607e+00  -2.9859409e-01
8.1000000e+00  -1.4315329e+00  -2.9861890e-01
8.1200000e+00  -1.4375055e+00  -2.9864327e-01
8.1400000e+00  -1.4434786e+00  -2.9866722e-01
8.1600000e+00  -1.4494522e+00  -2.9869075e-01
8.1800000e+00  -1.4554262e+00  -2.9871387e-01
8.2000000e+00  -1.4614007e+00  -2.9873659e-01
8.2200000e+00  -1.4673757e+00  -2.9875892e-01
8.2400000e+00  -1.4733511e+00  -2.9878085e-01
8.2600000e+00  -1.4793269e+00  -2.9880241e-01
8.2800000e+00  -1.4853032e+00  -2.9882359e-01
8.3000000e+00  -1.4912799e+00  -2.9884440e-01
8.3200000e+00  -1.4972570e+00  -2.9886484e-01
8.3400000e+00  -1.5032345e+00  -2.9888493e-01
8.3600000e+00  -1.5092123e+00  -2.9890467e-01
8.3800000e+00  -1.5151906e+00  -2.9892407e-01
8.4000000e+00  -1.5211693e+00  -2.9894312e-01
8.4200000e+00  -1.5271484e+00  -2.9896185e-01
8.4400000e+00  -1.5331278e+00  -2.9898024e-01
8.4600000e+00  -1.5391076e+00  -2.9899832e-01
8.4800000e+00  -1.5450877e+00  -2.9901608e-01
8.5000000e+00  -1.5510682e+00  -2.9903353e-01
8.5200000e+00  -1.5570491e+00  -2.9905067e-01
8.5400000e+00  -1.5630302e+00  -2.9906751e-01
8.5600000e+00  -1.5690117e+00  -2.9908406e-01
8.5800000e+00  -1.5749936e+00  -2.9910032e-01
8.6000000e+00  -1.5809758e+00  -2.9911629e-01
8.6200000e+00  -1.5869582e+00  -2.9913199e-01
8.6400000e+00  -1.5929410e+00  -2.9914741e-01
8.6600000e+00  -1.5989241e+00  -2.9916255e-01
8.6800000e+00  -1.6049075e+00  -2.9917744e-01
8.7000000e+00  -1.6108912e+00  -2.9919206e-01
8.7200000e+00  -1.6168752e+00  -2.9920642e-01
8.7400000e+00  -1.6228595e+00  -2.9922054e-01
8.7600000e+00  -1.6288440e+00  -2.9923440e-01
8.7800000e+00  -1.6348289e+00  -2.9924803e-01
8.8000000e+00  -1.6408140e+00  -2.9926141e-01
8.8200000e+00  -1.6467993e+00  -2.9927456e-01
8.8400000e+00  -1.6527849e+00  -2.9928747e-01
8.8600000e+00  -1.6587708e+00  -2.9930016e-01
8.8800000e+00  -1.6647569e+00  -2.9931263e-01
8.9000000e+00  -1.6707433e+00  -2.9932487e-01
8.9200000e+00  -1.6767299e+00  -2.9933691e-01
8.9400000e+00  -1.6827168e+00  -2.9934873e-01
8.9600000e+00  -1.6887039e+00  -2.9936034e-01
8.9800000e+00  -1.6946912e+00  -2.9937174e-01
9.0000000e+00  -1.7006788e+00  -2.9938295e-01
9.0200000e+00  -1.7066665e+00  -2.9939396e-01
9.0400000e+00  -1.7126545e+00  -2.9940477e-01
9.0600000e+00  -1.7186427e+00  -2.9941540e-01
9.0800000e+00  -1.7246311e+00  -2.9942584e-01
9.1000000e+00  -1.7306197e+00  -2.9943609e-01
9.1200000e+00  -1.7366086e+00  -2.9944616e-01
9.1400000e+00  -1.7425976e+00  -2.9945605e-01
9.1600000e+00  -1.7485868e+00  -2.9946577e-01
9.1800000e+00  -1.7545762e+00  -2.9947532e-01
9.2000000e+00  -1.7605658e+00  -2.9948470e-01
9.2200000e+00  -1.7665556e+00  -2.9949391e-01
9.2400000e+00  -1.7725456e+00  -2.9950296e-01
9.2600000e+00  -1.7785357e+00  -2.9951185e-01
9.2800000e+00  -1.7845260e+00  -2.9952059e-01
9.3000000e+00  -1.7905165e+00  -2.9952917e-01
9.3200000e+00  -1.7965072e+00  -2.9953759e-01
9.3400000e+00  -1.8024980e+00  -2.9954587e-01
9.3600000e+00  -1.8084890e+00  -2.9955400e-01
9.3800000e+00  -1.8144802e+00  -2.9956199e-01
9.4000000e+00  -1.8204715e+00  -2.9956983e-01
9.4200000e+00  -1.8264630e+00  -2.9957754e-01
9.4400000e+00  -1.8324546e+00  -2.9958511e-01
9.4600000e+00  -1.8384464e+00  -2.9959255e-01
9.4800000e+00  -1.8444383e+00  -2.9959985e-01
9.5000000e+00  -1.8504304e+00  -2.9960703e-01
9.5200000e+00  -1.8564226e+00  -2.9961408e-01
9.5400000e+00  -1.8624150e+00  -2.9962100e-01
9.5600000e+00  -1.8684074e+00  -2.9962780e-01
9.5800000e+00  -1.8744001e+00  -2.9963448e-01
9.6000000e+00  -1.8803928e+00  -2.9964104e-01
9.6200000e+00  -1.8863857e+00  -2.9964748e-01
9.6400000e+00  -1.8923787e+00  -2.9965381e-01
9.6600000e+00  -1.8983719e+00  -2.9966003e-01
9.6800000e+00  -1.9043651e+00  -2.9966614e-01
9.7000000e+00  -1.9103585e+00  -2.9967213e-01
9.7200000e+00  -1.9163520e+00  -2.9967802e-01
9.7400000e+00  -1.9223456e+00  -2.9968381e-01
9.7600000e+00  -1.9283394e+00  -2.9968950e-01
9.7800000e+00  -1.9343332e+00  -2.9969508e-01
9.8000000e+00  -1.9403272e+00  -2.9970056e-01
9.8200000e+00  -1.9463212e+00  -2.9970595e-01
9.8400000e+00  -1.9523154e+00  -2.9971124e-01
9.8600000e+00  -1.9583097e+00  -2.9971643e-01
9.8800000e+00  -1.9643041e+00  -2.9972154e-01
9.9000000e+00  -1.9702985e+00  -2.9972655e-01
9.9200000e+00  -1.9762931e+00  -2.9973147e-01
9.9400000e+00  -1.9822878e+00  -2.9973631e-01
9.9600000e+00  -1.9882826e+00  -2.9974105e-01
9.9800000e+00  -1.9942774e+00  -2.9974572e-01
1.0000000e+01  -2.0002724e+00  -2.9975030e-01
1.0020000e+01  -2.0062674e+00  -2.9975480e-01
1.0040000e+01  -2.0122626e+00  -2.9975922e-01
1.0060000e+01  -2.0182578e+00  -2.9976356e-01
1.0080000e+01  -2.0242531e+00  -2.9976782e-01
1.0100000e+01  -2.0302485e+00  -2.9977201e-01
1.0120000e+01  -2.0362440e+00  -2.9977612e-01
1.0140000e+01  -2.0422396e+00  -2.9978016e-01
1.0160000e+01  -2.0482352e+00  -2.9978412e-01
1.0180000e+01  -2.0542309e+00  -2.9978802e-01
1.0200000e+01  -2.0602267e+00  -2.9979185e-01
1.0220000e+01  -2.0662226e+00  -2.9979560e-01
1.0240000e+01  -2.0722186e+00  -2.9979929e-01
1.0260000e+01  -2.0782146e+00  -2.9980292e-01
1.0280000e+01  -2.0842107e+00  -2.9980648e-01
1.0300000e+01  -2.0902068e+00  -2.9980997e-01
1.0320000e+01  -2.0962031e+00  -2.9981341e-01
1.0340000e+01  -2.1021994e+00  -2.9981678e-01
1.0360000e+01  -2.1081957e+00  -2.9982009e-01
1.0380000e+01  -2.1141922e+00  -2.9982334e-01
1.0400000e+01  -2.1201887e+00  -2.9982653e-01
1.0420000e+01  -2.1261852e+00  -2.9982967e-01
1.0440000e+01  -2.1321819e+00  -2.9983275e-01
1.0460000e+01  -2.1381786e+00  -2.9983578e-01
1.0480000e+01  -2.1441753e+00  -2.9983875e-01
1.0500000e+01  -2.1501721e+00  -2.9984167e-01
1.0520000e+01  -2.1561690e+00  -2.9984453e-01
1.0540000e+01  -2.1621659e+00  -2.9984734e-01
1.0560000e+01  -2.1681629e+00  -2.9985011e-01
1.0580000e+01  -2.1741599e+00  -2.9985282e-01
1.0600000e+01  -2.1801570e+00  -2.9985549e-01
1.0620000e+01  -2.1861541e+00  -2.9985810e-01
1.0640000e+01  -2.1921513e+00  -2.9986067e-01
1.0660000e+01  -2.1981485e+00  -2.9986320e-01
1.0680000e+01  -2.2041458e+00  -2.9986568e-01
1.0700000e+01  -2.2101432e+00  -2.9986811e-01
1.0720000e+01  -2.2161405e+00  -2.9987050e-01
1.0740000e+01  -2.2221380e+00  -2.9987285e-01
1.0760000e+01  -2.2281355e+00  -2.9987516e-01
1.0780000e+01  -2.2341330e+00  -2.9987742e-01
1.0800000e+01  -2.2401306e+00  -2.9987964e-01
1.0820000e+01  -2.2461282e+00  -2.9988183e-01
1.0840000e+01  -2.2521258e+00  -2.9988397e-01
1.0860000e+01  -2.2581235e+00  -2.9988608e-01
1.0880000e+01  -2.2641213e+00  -2.9988814e-01
1.0900000e+01  -2.2701191e+00  -2.9989017e-01
1.0920000e+01  -2.2761169e+00  -2.9989217e-01
1.0940000e+01  -2.2821147e+00  -2.9989413e-01
1.0960000e+01  -2.2881126e+00  -2.9989605e-01
1.0980000e+01  -2.2941106e+00  -2.9989794e-01
1.1000000e+01  -2.3001086e+00  -2.9989979e-01
1.1020000e+01  -2.3061066e+00  -2.9990161e-01
1.1040000e+01  -2.3121046e+00  -2.9990340e-01
1.1060000e+01  -2.3181027e+00  -2.9990515e-01
1.1080000e+01  -2.3241008e+00  -2.9990688e-01
1.1100000e+01  -2.3300990e+00  -2.9990857e-01
1.1120000e+01  -2.3360972e+00  -2.9991023e-01
1.1140000e+01  -2.3420954e+00  -2.9991186e-01
1.1160000e+01  -2.3480936e+00  -2.9991347e-01
1.1180000e+01  -2.3540919e+00  -2.9991504e-01
1.1200000e+01  -2.3600902e+00  -2.9991659e-01
1.1220000e+01  -2.3660886e+00  -2.9991810e-01
1.1240000e+01  -2.3720870e+00  -2.9991960e-01
1.1260000e+01  -2.3780854e+00  -2.9992106e-01
1.1280000e+01  -2.3840838e+00  -2.9992250e-01
1.1300000e+01  -2.3900823e+00  -2.9992391e-01
1.1320000e+01  -2.3960808e+00  -2.9992529e-01
1.1340000e+01  -2.4020793e+00  -2.9992665e-01
1.1360000e+01  -2.4080778e+00  -2.9992799e-01
1.1380000e+01  -2.4140764e+00  -2.9992930e-01
1.1400000e+01  -2.4200750e+00  -2.9993059e-01
1.1420000e+01  -2.4260736e+00  -2.9993185e-01
1.1440000e+01  -2.4320723e+00  -2.9993309e-01
1.1460000e+01  -2.4380710e+00  -2.9993431e-01
1.1480000e+01  -2.4440697e+00  -2.9993551e-01
1.1500000e+01  -2.4500684e+00  -2.9993669e-01
1.1520000e+01  -2.4560671e+00  -2.9993784e-01
1.1540000e+01  -2.4620659e+00  -2.9993897e-01
1.1560000e+01  -2.4680647e+00  -2.9994009e-01
1.1580000e+01  -2.4740635e+00  -2.9994118e-01
1.1600000e+01  -2.4800623e+00  -2.9994225e-01
1.1620000e+01  -2.4860612e+00  -2.9994331e-01
1.1640000e+01  -2.4920601e+00  -2.9994434e-01
1.1660000e+01  -2.4980590e+00  -2.9994536e-01
1.1680000e+01  -2.5040579e+00  -2.9994635e-01
1.1700000e+01  -2.5100568e+00  -2.9994733e-01
1.1720000e+01  -2.5160558e+00  -2.9994830e-01
1.1740000e+01  -2.5220547e+00  -2.9994924e-01
1.1760000e+01  -2.5280537e+00  -2.9995017e-01
1.1780000e+01  -2.5340527e+00  -2.9995108e-01
1.1800000e+01  -2.5400518e+00  -2.9995197e-01
1.1820000e+01  -2.5460508e+00  -2.9995285e-01
1.1840000e+01  -2.5520499e+00  -2.9995371e-01
1.1860000e+01  -2.5580490e+00  -2.9995456e-01
1.1880000e+01  -2.5640481e+00  -2.9995539e-01
1.1900000e+01  -2.5700472e+00  -2.9995620e-01
1.1920000e+01  -2.5760463e+00  -2.9995700e-01
1.1940000e+01  -2.5820455e+00  -2.9995779e-01
1.1960000e+01  -2.5880446e+00  -2.9995856e-01
1.1980000e+01  -2.5940438e+00  -2.9995932e-01
1.2000000e+01  -2.6000430e+00  -2.9996006e-01
1.2020000e+01  -2.6060422e+00  -2.9996079e-01
1.2040000e+01  -2.6120414e+00  -2.9996151e-01
1.2060000e+01  -2.6180407e+00  -2.9996221e-01
1.2080000e+01  -2.6240399e+00  -2.9996291e-01
1.2100000e+01  -2.6300392e+00  -2.9996359e-01
1.2120000e+01  -2.6360385e+00  -2.9996425e-01
1.2140000e+01  -2.6420378e+00  -2.9996491e-01
1.2160000e+01  -2.6480371e+00  -2.9996555e-01
1.2180000e+01  -2.6540364e+00  -2.9996618e-01
1.2200000e+01  -2.6600357e+00  -2.9996680e-01
1.2220000e+01  -2.6660351e+00  -2.9996741e-01
1.2240000e+01  -2.6720344e+00  -2.9996800e-01
1.2260000e+01  -2.6780338e+00  -2.9996859e-01
1.2280000e+01  -2.6840332e+00  -2.9996917e-01
1.2300000e+01  -2.6900325e+00  -2.9996973e-01
1.2320000e+01  -2.6960319e+00  -2.9997029e-01
1.2340000e+01  -2.7020314e+00  -2.9997083e-01
1.2360000e+01  -2.7080308e+00  -2.9997136e-01
1.2380000e+01  -2.7140302e+00  -2.9997189e-01
1.2400000e+01  -2.7200297e+00  -2.9997241e-01
1.2420000e+01  -2.7260291e+00  -2.9997291e-01
1.2440000e+01  -2.7320286e+00  -2.9997341e-01
1.2460000e+01  -2.7380280e+00  -2.9997390e-01
1.2480000e+01  -2.7440275e+00  -2.9997437e-01
1.2500000e+01  -2.7500270e+00  -2.9997485e-01
1.2520000e+01  -2.7560265e+00  -2.9997531e-01
1.2540000e+01  -2.7620260e+00  -2.9997576e-01
1.2560000e+01  -2.7680255e+00  -2.9997620e-01
1.2580000e+01  -2.7740251e+00  -2.9997664e-01
1.2600000e+01  -2.7800246e+00  -2.9997707e-01
1.2620000e+01  -2.7860242e+00  -2.9997749e-01
1.2640000e+01  -2.7920237e+00  -2.9997790e-01
1.2660000e+01  -2.7980233e+00  -2.9997831e-01
1.2680000e+01  -2.8040228e+00  -2.9997871e-01
1.2700000e+01  -2.8100224e+00  -2.9997910e-01
1.2720000e+01  -2.8160220e+00  -2.9997948e-01
1.2740000e+01  -2.8220216e+00  -2.9997986e-01
1.2760000e+01  -2.8280212e+00  -2.9998023e-01
1.2780000e+01  -2.8340208e+00  -2.9998059e-01
1.2800000e+01  -2.8400204e+00  -2.9998095e-01
1.2820000e+01  -2.8460201e+00  -2.9998130e-01
1.2840000e+01  -2.8520197e+00  -2.9998164e-01
1.2860000e+01  -2.8580193e+00  -2.9998198e-01
1.2880000e+01  -2.8640190e+00  -2.9998231e-01
1.2900000e+01  -2.8700186e+00  -2.9998264e-01
1.2920000e+01  -2.8760183e+00  -2.9998296e-01
1.2940000e+01  -2.8820179e+00  -2.9998327e-01
1.2960000e+01  -2.8880176e+00  -2.9998358e-01
1.2980000e+01  -2.8940173e+00  -2.9998388e-01
1.3000000e+01  -2.9000170e+00  -2.9998418e-01
1.3020000e+01  -2.9060166e+00  -2.9998447e-01
1.3040000e+01  -2.9120163e+00  -2.9998475e-01
1.3060000e+01  -2.9180160e+00  -2.9998504e-01
1.3080000e+01  -2.9240157e+00  -2.9998531e-01
1.3100000e+01  -2.9300154e+00  -2.9998558e-01
1.3120000e+01  -2.9360152e+00  -2.9998585e-01
1.3140000e+01  -2.9420149e+00  -2.9998611e-01
1.3160000e+01  -2.9480146e+00  -2.9998636e-01
1.3180000e+01  -2.9540143e+00  -2.9998661e-01
1.3200000e+01  -2.9600141e+00  -2.9998686e-01
1.3220000e+01  -2.9660138e+00  -2.9998710e-01
1.3240000e+01  -2.9720135e+00  -2.9998734e-01
1.3260000e+01  -2.9780133e+00  -2.9998757e-01
1.3280000e+01  -2.9840131e+00  -2.9998780e-01
1.3300000e+01  -2.9900128e+00  -2.9998803e-01
1.3320000e+01  -2.9960126e+00  -2.9998825e-01
1.3340000e+01  -3.0020123e+00  -2.9998846e-01
1.3360000e+01  -3.0080121e+00  -2.9998868e-01
1.3380000e+01  -3.0140119e+00  -2.9998889e-01
1.3400000e+01  -3.0200117e+00  -2.9998909e-01
1.3420000e+01  -3.0260114e+00  -2.9998929e-01
1.3440000e+01  -3.0320112e+00  -2.9998949e-01
1.3460000e+01  -3.0380110e+00  -2.9998968e-01
1.3480000e+01  -3.0440108e+00  -2.9998987e-01
1.3500000e+01  -3.0500106e+00  -2.9999006e-01
1.3520000e+01  -3.0560104e+00  -2.9999024e-01
1.3540000e+01  -3.0620102e+00  -2.9999042e-01
1.3560000e+01  -3.0680100e+00  -2.9999060e-01
1.3580000e+01  -3.0740099e+00  -2.9999077e-01
1.3600000e+01  -3.0800097e+00  -2.9999094e-01
1.3620000e+01  -3.0860095e+00  -2.9999111e-01
1.3640000e+01  -3.0920093e+00  -2.9999128e-01
1.3660000e+01  -3.0980091e+00  -2.9999144e-01
1.3680000e+01  -3.1040090e+00  -2.9999159e-01
1.3700000e+01  -3.1100088e+00  -2.9999175e-01
1.3720000e+01  -3.1160086e+00  -2.9999190e-01
1.3740000e+01  -3.1220085e+00  -2.9999205e-01
1.3760000e+01  -3.1280083e+00  -2.9999220e-01
1.3780000e+01  -3.1340082e+00  -2.9999234e-01
1.3800000e+01  -3.1400080e+00  -2.9999248e-01
1.3820000e+01  -3.1460079e+00  -2.9999262e-01
1.3840000e+01  -3.1520077e+00  -2.9999276e-01
1.3860000e+01  -3.1580076e+00  -2.9999289e-01
1.3880000e+01  -3.1640074e+00  -2.9999302e-01
1.3900000e+01  -3.1700073e+00  -2.9999315e-01
1.3920000e+01  -3.1760072e+00  -2.9999328e-01
1.3940000e+01  -3.1820070e+00  -2.9999340e-01
1.3960000e+01  -3.1880069e+00  -2.9999353e-01
1.3980000e+01  -3.1940068e+00  -2.9999365e-01
1.4000000e+01  -3.2000067e+00  -2.9999376e-01
1.4020000e+01  -3.2060065e+00  -2.9999388e-01
1.4040000e+01  -3.2120064e+00  -2.9999399e-01
1.4060000e+01  -3.2180063e+00  -2.9999410e-01
1.4080000e+01  -3.2240062e+00  -2.9999421e-01
1.4100000e+01  -3.2300061e+00  -2.9999432e-01
1.4120000e+01  -3.2360059e+00  -2.9999442e-01
1.4140000e+01  -3.2420058e+00  -2.9999453e-01
1.4160000e+01  -3.2480057e+00  -2.9999463e-01
1.4180000e+01  -3.2540056e+00  -2.9999473e-01
1.4200000e+01  -3.2600055e+00  -2.9999483e-01
1.4220000e+01  -3.2660054e+00  -2.9999492e-01
1.4240000e+01  -3.2720053e+00  -2.9999502e-01
1.4260000e+01  -3.2780052e+00  -2.9999511e-01
1.4280000e+01  -3.2840051e+00  -2.9999520e-01
1.4300000e+01  -3.2900050e+00  -2.9999529e-01
1.4320000e+01  -3.2960049e+00  -2.9999537e-01
1.4340000e+01  -3.3020048e+00  -2.9999546e-01
1.4360000e+01  -3.3080047e+00  -2.9999554e-01
1.4380000e+01  -3.3140047e+00  -2.9999563e-01
1.4400000e+01  -3.3200046e+00  -2.9999571e-01
1.4420000e+01  -3.3260045e+00  -2.9999579e-01
1.4440000e+01  -3.3320044e+00  -2.9999587e-01
1.4460000e+01  -3.3380043e+00  -2.9999594e-01
1.4480000e+01  -3.3440042e+00  -2.9999602e-01
1.4500000e+01  -3.3500042e+00  -2.9999609e-01
1.4520000e+01  -3.3560041e+00  -2.9999616e-01
1.4540000e+01  -3.3620040e+00  -2.9999623e-01
1.4560000e+01  -3.3680039e+00  -2.9999630e-01
1.4580000e+01  -3.3740039e+00  -2.9999637e-01
1.4600000e+01  -3.3800038e+00  -2.9999644e-01
1.4620000e+01  -3.3860037e+00  -2.9999651e-01
1.4640000e+01  -3.3920036e+00  -2.9999657e-01
1.4660000e+01  -3.3980036e+00  -2.9999663e-01
1.4680000e+01  -3.4040035e+00  -2.9999670e-01
1.4700000e+01  -3.4100034e+00  -2.9999676e-01
1.4720000e+01  -3.4160034e+00  -2.9999682e-01
1.4740000e+01  -3.4220033e+00  -2.9999688e-01
1.4760000e+01  -3.4280033e+00  -2.9999694e-01
1.4780000e+01  -3.4340032e+00  -2.9999699e-01
1.4800000e+01  -3.4400031e+00  -2.9999705e-01
1.4820000e+01  -3.4460031e+00  -2.9999710e-01
1.4840000e+01  -3.4520030e+00  -2.9999716e-01
1.4860000e+01  -3.4580030e+00  -2.9999721e-01
1.4880000e+01  -3.4640029e+00  -2.9999726e-01
1.4900000e+01  -3.4700029e+00  -2.9999731e-01
1.4920000e+01  -3.4760028e+00  -2.9999736e-01
1.4940000e+01  -3.4820027e+00  -2.9999741e-01
1.4960000e+01  -3.4880027e+00  -2.9999746e-01
1.4980000e+01  -3.4940026e+00  -2.9999751e-01
1.5000000e+01  -3.5000026e+00  -2.9999755e-01
1.5020000e+01  -3.5060026e+00  -2.9999760e-01
1.5040000e+01  -3.5120025e+00  -2.9999764e-01
1.5060000e+01  -3.5180025e+00  -2.9999769e-01
1.5080000e+01  -3.5240024e+00  -2.9999773e-01
1.5100000e+01  -3.5300024e+00  -2.9999777e-01
1.5120000e+01  -3.5360023e+00  -2.9999781e-01
1.5140000e+01  -3.5420023e+00  -2.9999785e-01
1.5160000e+01  -3.5480022e+00  -2.9999789e-01
1.5180000e+01  -3.5540022e+00  -2.9999793e-01
1.5200000e+01  -3.5600022e+00  -2.9999797e-01
1.5220000e+01  -3.5660021e+00  -2.9999801e-01
1.5240000e+01  -3.5720021e+00  -2.9999805e-01
1.5260000e+01  -3.5780020e+00  -2.9999808e-01
1.5280000e+01  -3.5840020e+00  -2.9999812e-01
1.5300000e+01  -3.5900020e+00  -2.9999815e-01
1.5320000e+01  -3.5960019e+00  -2.9999819e-01
1.5340000e+01  -3.6020019e+00  -2.9999822e-01
1.5360000e+01  -3.6080019e+00  -2.9999825e-01
1.5380000e+01  -3.6140018e+00  -2.9999829e-01
1.5400000e+01  -3.6200018e+00  -2.9999832e-01
1.5420000e+01  -3.6260017e+00  -2.9999835e-01
1.5440000e+01  -3.6320017e+00  -2.9999838e-01
1.5460000e+01  -3.6380017e+00  -2.9999841e-01
1.5480000e+01  -3.6440017e+00  -2.9999844e-01
1.5500000e+01  -3.6500016e+00  -2.9999847e-01
1.5520000e+01  -3.6560016e+00  -2.9999850e-01
1.5540000e+01  -3.6620016e+00  -2.9999853e-01
1.5560000e+01  -3.6680015e+00  -2.9999855e-01
1.5580000e+01  -3.6740015e+00  -2.9999858e-01
1.5600000e+01  -3.6800015e+00  -2.9999861e-01
1.5620000e+01  -3.6860014e+00  -2.9999863e-01
1.5640000e+01  -3.6920014e+00  -2.9999866e-01
1.5660000e+01  -3.6980014e+00  -2.9999868e-01
1.5680000e+01  -3.7040014e+00  -2.9999871e-01
1.5700000e+01  -3.7100013e+00  -2.9999873e-01
1.5720000e+01  -3.7160013e+00  -2.9999876e-01
1.5740000e+01  -3.7220013e+00  -2.9999878e-01
1.5760000e+01  -3.7280013e+00  -2.9999880e-01
1.5780000e+01  -3.7340012e+00  -2.9999882e-01
1.5800000e+01  -3.7400012e+00  -2.9999885e-01
1.5820000e+01  -3.7460012e+00  -2.9999887e-01
1.5840000e+01  -3.7520012e+00  -2.9999889e-01
1.5860000e+01  -3.7580012e+00  -2.9999891e-01
1.5880000e+01  -3.7640011e+00  -2.9999893e-01
1.5900000e+01  -3.7700011e+00  -2.9999895e-01
1.5920000e+01  -3.7760011e+00  -2.9999897e-01
1.5940000e+01  -3.7820011e+00  -2.9999899e-01
1.5960000e+01  -3.7880011e+00  -2.9999901e-01
1.5980000e+01  -3.7940010e+00  -2.9999903e-01
1.6000000e+01  -3.8000010e+00  -2.9999904e-01
1.6020000e+01  -3.8060010e+00  -2.9999906e-01
1.6040000e+01  -3.8120010e+00  -2.9999908e-01
1.6060000e+01  -3.8180010e+00  -2.9999910e-01
1.6080000e+01  -3.8240009e+00  -2.9999911e-01
1.6100000e+01  -3.8300009e+00  -2.9999913e-01
1.6120000e+01  -3.8360009e+00  -2.9999915e-01
1.6140000e+01  -3.8420009e+00  -2.9999916e-01
1.6160000e+01  -3.8480009e+00  -2.9999918e-01
1.6180000e+01  -3.8540009e+00  -2.9999919e-01
1.6200000e+01  -3.8600008e+00  -2.9999921e-01
1.6220000e+01  -3.8660008e+00  -2.9999922e-01
1.6240000e+01  -3.8720008e+00  -2.9999924e-01
1.6260000e+01  -3.8780008e+00  -2.9999925e-01
1.6280000e+01  -3.8840008e+00  -2.9999927e-01
1.6300000e+01  -3.8900008e+00  -2.9999928e-01
1.6320000e+01  -3.8960007e+00  -2.9999929e-01
1.6340000e+01  -3.9020007e+00  -2.9999931e-01
1.6360000e+01  -3.9080007e+00  -2.9999932e-01
1.6380000e+01  -3.9140007e+00  -2.9999933e-01
1.6400000e+01  -3.9200007e+00  -2.9999934e-01
1.6420000e+01  -3.9260007e+00  -2.9999936e-01
1.6440000e+01  -3.9320007e+00  -2.9999937e-01
1.6460000e+01  -3.9380007e+00  -2.9999938e-01
1.6480000e+01  -3.9440006e+00  -2.9999939e-01
1.6500000e+01  -3.9500006e+00  -2.9999940e-01
1.6520000e+01  -3.9560006e+00  -2.9999941e-01
1.6540000e+01  -3.9620006e+00  -2.9999942e-01
1.6560000e+01  -3.9680006e+00  -2.9999944e-01
1.6580000e+01  -3.9740006e+00  -2.9999945e-01
1.6600000e+01  -3.9800006e+00  -2.9999946e-01
1.6620000e+01  -3.9860006e+00  -2.9999947e-01
1.6640000e+01  -3.9920006e+00  -2.9999948e-01
1.6660000e+01  -3.9980005e+00  -2.9999949e-01
1.6680000e+01  -4.0040005e+00  -2.9999950e-01
1.6700000e+01  -4.0100005e+00  -2.9999951e-01
1.6720000e+01  -4.0160005e+00  -2.9999951e-01
1.6740000e+01  -4.0220005e+00  -2.9999952e-01
1.6760000e+01  -4.0280005e+00  -2.9999953e-01
1.6780000e+01  -4.0340005e+00  -2.9999954e-01
1.6800000e+01  -4.0400005e+00  -2.9999955e-01
1.6820000e+01  -4.0460005e+00  -2.9999956e-01
1.6840000e+01  -4.0520005e+00  -2.9999957e-01
1.6860000e+01  -4.0580004e+00  -2.9999957e-01
1.6880000e+01  -4.0640004e+00  -2.9999958e-01
1.6900000e+01  -4.0700004e+00  -2.9999959e-01
1.6920000e+01  -4.0760004e+00  -2.9999960e-01
1.6940000e+01  -4.0820004e+00  -2.9999961e-01
1.6960000e+01  -4.0880004e+00  -2.9999961e-01
1.6980000e+01  -4.0940004e+00  -2.9999962e-01
1.7000000e+01  -4.1000004e+00  -2.9999963e-01
1.7020000e+01  -4.1060004e+00  -2.9999963e-01
1.7040000e+01  -4.1120004e+00  -2.9999964e-01
1.7060000e+01  -4.1180004e+00  -2.9999965e-01
1.7080000e+01  -4.1240004e+00  -2.9999965e-01
1.7100000e+01  -4.1300004e+00  -2.9999966e-01
1.7120000e+01  -4.1360003e+00  -2.9999967e-01
1.7140000e+01  -4.1420003e+00  -2.9999967e-01
1.7160000e+01  -4.1480003e+00  -2.9999968e-01
1.7180000e+01  -4.1540003e+00  -2.9999969e-01
1.7200000e+01  -4.1600003e+00  -2.9999969e-01
1.7220000e+01  -4.1660003e+00  -2.9999970e-01
1.7240000e+01  -4.1720003e+00  -2.9999970e-01
1.7260000e+01  -4.1780003e+00  -2.9999971e-01
1.7280000e+01  -4.1840003e+00  -2.9999971e-01
1.7300000e+01  -4.1900003e+00  -2.9999972e-01
1.7320000e+01  -4.1960003e+00  -2.9999972e-01
1.7340000e+01  -4.2020003e+00  -2.9999973e-01
1.7360000e+01  -4.2080003e+00  -2.9999973e-01
1.7380000e+01  -4.2140003e+00  -2.9999974e-01
1.7400000e+01  -4.2200003e+00  -2.9999974e-01
1.7420000e+01  -4.2260003e+00  -2.9999975e-01
1.7440000e+01  -4.2320003e+00  -2.9999975e-01
1.7460000e+01  -4.2380003e+00  -2.9999976e-01
1.7480000e+01  -4.2440002e+00  -2.9999976e-01
1.7500000e+01  -4.2500002e+00  -2.9999977e-01
1.7520000e+01  -4.2560002e+00  -2.9999977e-01
1.7540000e+01  -4.2620002e+00  -2.9999978e-01
1.7560000e+01  -4.2680002e+00  -2.9999978e-01
1.7580000e+01  -4.2740002e+00  -2.9999978e-01
1.7600000e+01  -4.2800002e+00  -2.9999979e-01
1.7620000e+01  -4.2860002e+00  -2.9999979e-01
1.7640000e+01  -4.2920002e+00  -2.9999980e-01
1.7660000e+01  -4.2980002e+00  -2.9999980e-01
1.7680000e+01  -4.3040002e+00  -2.9999980e-01
1.7700000e+01  -4.3100002e+00  -2.9999981e-01
1.7720000e+01  -4.3160002e+00  -2.9999981e-01
1.7740000e+01  -4.3220002e+00  -2.9999981e-01
1.7760000e+01  -4.3280002e+00  -2.9999982e-01
1.7780000e+01  -4.3340002e+00  -2.9999982e-01
1.7800000e+01  -4.3400002e+00  -2.9999983e-01
1.7820000e+01  -4.3460002e+00  -2.9999983e-01
1.7840000e+01  -4.3520002e+00  -2.9999983e-01
1.7860000e+01  -4.3580002e+00  -2.9999983e-01
1.7880000e+01  -4.3640002e+00  -2.9999984e-01
1.7900000e+01  -4.3700002e+00  -2.9999984e-01
1.7920000e+01  -4.3760002e+00  -2.9999984e-01
1.7940000e+01  -4.3820002e+00  -2.9999985e-01
1.7960000e+01  -4.3880002e+00  -2.9999985e-01
1.7980000e+01  -4.3940002e+00  -2.9999985e-01
1.8000000e+01  -4.4000002e+00  -2.9999986e-01
1.8020000e+01  -4.4060001e+00  -2.9999986e-01
1.8040000e+01  -4.4120001e+00  -2.9999986e-01
1.8060000e+01  -4.4180001e+00  -2.9999986e-01
1.8080000e+01  -4.4240001e+00  -2.9999987e-01
1.8100000e+01  -4.4300001e+00  -2.9999987e-01
1.8120000e+01  -4.4360001e+00  -2.9999987e-01
1.8140000e+01  -4.4420001e+00  -2.9999987e-01
1.8160000e+01  -4.4480001e+00  -2.9999988e-01
1.8180000e+01  -4.4540001e+00  -2.9999988e-01
1.8200000e+01  -4.4600001e+00  -2.9999988e-01
1.8220000e+01  -4.4660001e+00  -2.9999988e-01
1.8240000e+01  -4.4720001e+00  -2.9999988e-01
1.8260000e+01  -4.4780001e+00  -2.9999989e-01
1.8280000e+01  -4.4840001e+00  -2.9999989e-01
1.8300000e+01  -4.4900001e+00  -2.9999989e-01
1.8320000e+01  -4.4960001e+00  -2.9999989e-01
1.8340000e+01  -4.5020001e+00  -2.9999990e-01
1.8360000e+01  -4.5080001e+00  -2.9999990e-01
1.8380000e+01  -4.5140001e+00  -2.9999990e-01
1.8400000e+01  -4.5200001e+00  -2.9999990e-01
1.8420000e+01  -4.5260001e+00  -2.9999990e-01
1.8440000e+01  -4.5320001e+00  -2.9999990e-01
1.8460000e+01  -4.5380001e+00  -2.9999991e-01
1.8480000e+01  -4.5440001e+00  -2.9999991e-01
1.8500000e+01  -4.5500001e+00  -2.9999991e-01
1.8520000e+01  -4.5560001e+00  -2.9999991e-01
1.8540000e+01  -4.5620001e+00  -2.9999991e-01
1.8560000e+01  -4.5680001e+00  -2.9999991e-01
1.8580000e+01  -4.5740001e+00  -2.9999992e-01
1.8600000e+01  -4.5800001e+00  -2.9999992e-01
1.8620000e+01  -4.5860001e+00  -2.9999992e-01
1.8640000e+01  -4.5920001e+00  -2.9999992e-01
1.8660000e+01  -4.5980001e+00  -2.9999992e-01
1.8680000e+01  -4.6040001e+00  -2.9999992e-01
1.8700000e+01  -4.6100001e+00  -2.9999993e-01
1.8720000e+01  -4.6160001e+00  -2.9999993e-01
1.8740000e+01  -4.6220001e+00  -2.9999993e-01
1.8760000e+01  -4.6280001e+00  -2.9999993e-01
1.8780000e+01  -4.6340001e+00  -2.9999993e-01
1.8800000e+01  -4.6400001e+00  -2.9999993e-01
1.8820000e+01  -4.6460001e+00  -2.9999993e-01
1.8840000e+01  -4.6520001e+00  -2.9999993e-01
1.8860000e+01  -4.6580001e+00  -2.9999994e-01
1.8880000e+01  -4.6640001e+00  -2.9999994e-01
1.8900000e+01  -4.6700001e+00  -2.9999994e-01
1.8920000e+01  -4.6760001e+00  -2.9999994e-01
1.8940000e+01  -4.6820001e+00  -2.9999994e-01
1.8960000e+01  -4.6880001e+00  -2.9999994e-01
1.8980000e+01  -4.6940001e+00  -2.9999994e-01
1.9000000e+01  -4.7000001e+00  -2.9999994e-01
1.9020000e+01  -4.7060001e+00  -2.9999994e-01
1.9040000e+01  -4.7120001e+00  -2.9999995e-01
1.9060000e+01  -4.7180001e+00  -2.9999995e-01
1.9080000e+01  -4.7240001e+00  -2.9999995e-01
1.9100000e+01  -4.7300001e+00  -2.9999995e-01
1.9120000e+01  -4.7360001e+00  -2.9999995e-01
1.9140000e+01  -4.7420000e+00  -2.9999995e-01
1.9160000e+01  -4.7480000e+00  -2.9999995e-01
1.9180000e+01  -4.7540000e+00  -2.9999995e-01
1.9200000e+01  -4.7600000e+00  -2.9999995e-01
1.9220000e+01  -4.7660000e+00  -2.9999995e-01
1.9240000e+01  -4.7720000e+00  -2.9999996e-01
1.9260000e+01  -4.7780000e+00  -2.9999996e-01
1.9280000e+01  -4.7840000e+00  -2.9999996e-01
1.9300000e+01  -4.7900000e+00  -2.9999996e-01
1.9320000e+01  -4.7960000e+00  -2.9999996e-01
1.9340000e+01  -4.8020000e+00  -2.9999996e-01
1.9360000e+01  -4.8080000e+00  -2.9999996e-01
1.9380000e+01  -4.8140000e+00  -2.9999996e-01
1.9400000e+01  -4.8200000e+00  -2.9999996e-01
1.9420000e+01  -4.8260000e+00  -2.9999996e-01
1.9440000e+01  -4.8320000e+00  -2.9999996e-01
1.9460000e+01  -4.8380000e+00  -2.9999996e-01
1.9480000e+01  -4.8440000e+00  -2.9999996e-01
1.9500000e+01  -4.8500000e+00  -2.9999997e-01
1.9520000e+01  -4.8560000e+00  -2.9999997e-01
1.9540000e+01  -4.8620000e+00  -2.9999997e-01
1.9560000e+01  -4.8680000e+00  -2.9999997e-01
1.9580000e+01  -4.8740000e+00  -2.9999997e-01
1.9600000e+01  -4.8800000e+00  -2.9999997e-01
1.9620000e+01  -4.8860000e+00  -2.9999997e-01
1.9640000e+01  -4.8920000e+00  -2.9999997e-01
1.9660000e+01  -4.8980000e+00  -2.9999997e-01
1.9680000e+01  -4.9040000e+00  -2.9999997e-01
1.9700000e+01  -4.9100000e+00  -2.9999997e-01
1.9720000e+01  -4.9160000e+00  -2.9999997e-01
1.9740000e+01  -4.9220000e+00  -2.9999997e-01
1.9760000e+01  -4.9280000e+00  -2.9999997e-01
1.9780000e+01  -4.9340000e+00  -2.9999997e-01
1.9800000e+01  -4.9400000e+00  -2.9999997e-01
1.9820000e+01  -4.9460000e+00  -2.9999997e-01
1.9840000e+01  -4.9520000e+00  -2.9999997e-01
1.9860000e+01  -4.9580000e+00  -2.9999998e-01
1.9880000e+01  -4.9640000e+00  -2.9999998e-01
1.9900000e+01  -4.9700000e+00  -2.9999998e-01
1.9920000e+01  -4.9760000e+00  -2.9999998e-01
1.9940000e+01  -4.9820000e+00  -2.9999998e-01
1.9960000e+01  -4.9880000e+00  -2.9999998e-01
1.9980000e+01  -4.9940000e+00  -2.9999998e-01
2.0000000e+01  -5.0000000e+00  -2.9999998e-01


0.0000000e+00  0.0000000e+00  4.0000000e-01
2.0000000e-02  7.9993400e-03  3.9990132e-01
4.0000000e-02  1.5994772e-02  3.9961051e-01
6.0000000e-02  2.3982530e-02  3.9913520e-01
8.0000000e-02  3.1959000e-02  3.9848283e-01
1.0000000e-01  3.9920711e-02  3.9766058e-01
1.2000000e-01  4.7864337e-02  3.9667544e-01
1.4000000e-01  5.5786688e-02  3.9553419e-01
1.6000000e-01  6.3684708e-02  3.9424340e-01
1.8000000e-01  7.1555470e-02  3.9280942e-01
2.0000000e-01  7.9396172e-02  3.9123845e-01
2.2000000e-01  8.7204134e-02  3.8953647e-01
2.4000000e-01  9.4976796e-02  3.8770927e-01
2.6000000e-01  1.0271171e-01  3.8576250e-01
2.8000000e-01  1.1040653e-01  3.8370159e-01
3.0000000e-01  1.1805905e-01  3.8153184e-01
3.2000000e-01  1.2566712e-01  3.7925836e-01
3.4000000e-01  1.3322872e-01  3.7688612e-01
3.6000000e-01  1.4074194e-01  3.7441990e-01
3.8000000e-01  1.4820492e-01  3.7186437e-01
4.0000000e-01  1.5561594e-01  3.6922403e-01
4.2000000e-01  1.6297335e-01  3.6650324e-01
4.4000000e-01  1.7027557e-01  3.6370622e-01
4.6000000e-01  1.7752112e-01  3.6083706e-01
4.8000000e-01  1.8470859e-01  3.5789971e-01
5.0000000e-01  1.9183668e-01  3.5489799e-01
5.2000000e-01  1.9890411e-01  3.5183562e-01
5.4000000e-01  2.0590972e-01  3.4871615e-01
5.6000000e-01  2.1285240e-01  3.4554307e-01
5.8000000e-01  2.1973111e-01  3.4231971e-01
6.0000000e-01  2.2654487e-01  3.3904931e-01
6.2000000e-01  2.3329279e-01  3.3573499e-01
6.4000000e-01  2.3997400e-01  3.3237979e-01
6.6000000e-01  2.4658773e-01  3.2898661e-01
6.8000000e-01  2.5313323e-01  3.2555827e-01
7.0000000e-01  2.5960984e-01  3.2209751e-01
7.2000000e-01  2.6601693e-01  3.1860694e-01
7.4000000e-01  2.7235394e-01  3.1508911e-01
7.6000000e-01  2.7862033e-01  3.1154646e-01
7.8000000e-01  2.8481564e-01  3.0798135e-01
8.0000000e-01  2.9093945e-01  3.0439607e-01
8.2000000e-01  2.9699137e-01  3.0079281e-01
8.4000000e-01  3.0297106e-01  2.9717368e-01
8.6000000e-01  3.0887822e-01  2.9354074e-01
8.8000000e-01  3.1471261e-01  2.8989594e-01
9.0000000e-01  3.2047399e-01  2.8624118e-01
9.2000000e-01  3.2616220e-01  2.8257828e-01
9.4000000e-01  3.3177708e-01  2.7890900e-01
9.6000000e-01  3.3731853e-01  2.7523503e-01
9.8000000e-01  3.4278646e-01  2.7155799e-01
1.0000000e+00  3.4818084e-01  2.6787944e-01
1.0200000e+00  3.5350164e-01  2.6420089e-01
1.0400000e+00  3.5874888e-01  2.6052378e-01
1.0600000e+00  3.6392261e-01  2.5684948e-01
1.0800000e+00  3.6902289e-01  2.5317935e-01
1.1000000e+00  3.7404982e-01  2.4951464e-01
1.1200000e+00  3.7900352e-01  2.4585658e-01
1.1400000e+00  3.8388414e-01  2.4220635e-01
1.1600000e+00  3.8869183e-01  2.3856508e-01
1.1800000e+00  3.9342681e-01  2.3493383e-01
1.2000000e+00  3.9808926e-01  2.3131363e-01
1.2200000e+00  4.0267943e-01  2.2770549e-01
1.2400000e+00  4.0719757e-01  2.2411032e-01
1.2600000e+00  4.1164394e-01  2.2052905e-01
1.2800000e+00  4.1601883e-01  2.1696252e-01
1.3000000e+00  4.2032254e-01  2.1341156e-01
1.3200000e+00  4.2455540e-01  2.0987695e-01
1.3400000e+00  4.2871773e-01  2.0635943e-01
1.3600000e+00  4.3280989e-01  2.0285972e-01
1.3800000e+00  4.3683225e-01  1.9937848e-01
1.4000000e+00  4.4078516e-01  1.9591636e-01
1.4200000e+00  4.4466903e-01  1.9247396e-01
1.4400000e+00  4.4848426e-01  1.8905187e-01
1.4600000e+00  4.5223124e-01  1.8565062e-01
1.4800000e+00  4.5591042e-01  1.8227073e-01
1.5000000e+00  4.5952222e-01  1.7891270e-01
1.5200000e+00  4.6306708e-01  1.7557698e-01
1.5400000e+00  4.6654545e-01  1.7226400e-01
1.5600000e+00  4.6995779e-01  1.6897417e-01
1.5800000e+00  4.7330457e-01  1.6570788e-01
1.6000000e+00  4.7658627e-01  1.6246547e-01
1.6200000e+00  4.7980335e-01  1.5924730e-01
1.6400000e+00  4.8295632e-01  1.5605366e-01
1.6600000e+00  4.8604567e-01  1.5288484e-01
1.6800000e+00  4.8907188e-01  1.4974113e-01
1.7000000e+00  4.9203548e-01  1.4662276e-01
1.7200000e+00  4.9493697e-01  1.4352996e-01
1.7400000e+00  4.9777685e-01  1.4046295e-01
1.7600000e+00  5.0055566e-01  1.3742191e-01
1.7800000e+00  5.0327390e-01  1.3440702e-01
1.8000000e+00  5.0593211e-01  1.3141844e-01
1.8200000e+00  5.0853082e-01  1.2845631e-01
1.8400000e+00  5.1107054e-01  1.2552075e-01
1.8600000e+00  5.1355182e-01  1.2261186e-01
1.8800000e+00  5.1597520e-01  1.1972975e-01
1.9000000e+00  5.1834119e-01  1.1687450e-01
1.9200000e+00  5.2065035e-01  1.1404616e-01
1.9400000e+00  5.2290322e-01  1.1124481e-01
1.9600000e+00  5.2510033e-01  1.0847046e-01
1.9800000e+00  5.2724222e-01  1.0572316e-01
2.0000000e+00  5.2932943e-01  1.0300292e-01
2.0200000e+00  5.3136252e-01  1.0030975e-01
2.0400000e+00  5.3334200e-01  9.7643641e-02
2.0600000e+00  5.3526844e-01  9.5004574e-02
2.0800000e+00  5.3714237e-01  9.2392527e-02
2.1000000e+00  5.3896432e-01  8.9807464e-02
2.1200000e+00  5.4073485e-01  8.7249341e-02
2.1400000e+00  5.4245448e-01  8.4718104e-02
2.1600000e+00  5.4412375e-01  8.2213691e-02
2.1800000e+00  5.4574320e-01  7.9736034e-02
2.2000000e+00  5.4731337e-01  7.7285053e-02
2.2200000e+00  5.4883478e-01  7.4860665e-02
2.2400000e+00  5.5030797e-01  7.2462777e-02
2.2600000e+00  5.5173347e-01  7.0091290e-02
2.2800000e+00  5.5311180e-01  6.7746099e-02
2.3000000e+00  5.5444349e-01  6.5427092e-02
2.3200000e+00  5.5572906e-01  6.3134152e-02
2.3400000e+00  5.5696903e-01  6.0867156e-02
2.3600000e+00  5.5816391e-01  5.8625975e-02
2.3800000e+00  5.5931424e-01  5.6410476e-02
2.4000000e+00  5.6042050e-01  5.4220521e-02
2.4200000e+00  5.6148323e-01  5.2055966e-02
2.4400000e+00  5.6250291e-01  4.9916665e-02
2.4600000e+00  5.6348006e-01  4.7802465e-02
2.4800000e+00  5.6441518e-01  4.5713213e-02
2.5000000e+00  5.6530875e-01  4.3648748e-02
2.5200000e+00  5.6616129e-01  4.1608908e-02
2.5400000e+00  5.6697327e-01  3.9593528e-02
2.5600000e+00  5.6774519e-01  3.7602438e-02
2.5800000e+00  5.6847753e-01  3.5635467e-02
2.6000000e+00  5.6917077e-01  3.3692441e-02
2.6200000e+00  5.6982539e-01  3.1773182e-02
2.6400000e+00  5.7044186e-01  2.9877511e-02
2.6600000e+00  5.7102064e-01  2.8005246e-02
2.6800000e+00  5.7156222e-01  2.6156204e-02
2.7000000e+00  5.7206705e-01  2.4330199e-02
2.7200000e+00  5.7253558e-01  2.2527043e-02
2.7400000e+00  5.7296828e-01  2.0746549e-02
2.7600000e+00  5.7336559e-01  1.8988525e-02
2.7800000e+00  5.7372797e-01  1.7252779e-02
2.8000000e+00  5.7405585e-01  1.5539119e-02
2.8200000e+00  5.7434968e-01  1.3847351e-02
2.8400000e+00  5.7460989e-01  1.2177279e-02
2.8600000e+00  5.7483691e-01  1.0528707e-02
2.8800000e+00  5.7503118e-01  8.9014400e-03
2.9000000e+00  5.7519311e-01  7.2952792e-03
2.9200000e+00  5.7532313e-01  5.7100272e-03
2.9400000e+00  5.7542165e-01  4.1454857e-03
2.9600000e+00  5.7548909e-01  2.6014561e-03
2.9800000e+00  5.7552584e-01  1.0777395e-03
3.0000000e+00  5.7553233e-01  -4.2586318e-04
3.0200000e+00  5.7550894e-01  -1.9095510e-03
3.0400000e+00  5.7545608e-01  -3.3735231e-03
3.0600000e+00  5.7537413e-01  -4.8179786e-03
3.0800000e+00  5.7526349e-01  -6.2431164e-03
3.1000000e+00  5.7512453e-01  -7.6491350e-03
3.1200000e+00  5.7495765e-01  -9.0362330e-03
3.1400000e+00  5.7476321e-01  -1.0404608e-02
3.1600000e+00  5.7454159e-01  -1.1754458e-02
3.1800000e+00  5.7429315e-01  -1.3085981e-02
3.2000000e+00  5.7401827e-01  -1.4399372e-02
3.2200000e+00  5.7371730e-01  -1.5694827e-02
3.2400000e+00  5.7339060e-01  -1.6972542e-02
3.2600000e+00  5.7303851e-01  -1.8232712e-02
3.2800000e+00  5.7266140e-01  -1.9475530e-02
3.3000000e+00  5.7225961e-01  -2.0701190e-02
3.3200000e+00  5.7183347e-01  -2.1909883e-02
3.3400000e+00  5.7138332e-01  -2.3101802e-02
3.3600000e+00  5.7090951e-01  -2.4277135e-02
3.3800000e+00  5.7041235e-01  -2.5436074e-02
3.4000000e+00  5.6989217e-01  -2.6578806e-02
3.4200000e+00  5.6934930e-01  -2.7705519e-02
3.4400000e+00  5.6878406e-01  -2.8816398e-02
3.4600000e+00  5.6819675e-01  -2.9911631e-02
3.4800000e+00  5.6758769e-01  -3.0991399e-02
3.5000000e+00  5.6695720e-01  -3.2055887e-02
3.5200000e+00  5.6630556e-01  -3.3105276e-02
3.5400000e+00  5.6563308e-01  -3.4139747e-02
3.5600000e+00  5.6494007e-01  -3.5159480e-02
3.5800000e+00  5.6422680e-01  -3.6164651e-02
3.6000000e+00  5.6349358e-01  -3.7155438e-02
3.6200000e+00  5.6274068e-01  -3.8132017e-02
3.6400000e+00  5.6196839e-01  -3.9094562e-02
3.6600000e+00  5.6117699e-01  -4.0043245e-02
3.6800000e+00  5.6036675e-01  -4.0978239e-02
3.7000000e+00  5.5953795e-01  -4.1899713e-02
3.7200000e+00  5.5869085e-01  -4.2807836e-02
3.7400000e+00  5.5782572e-01  -4.3702775e-02
3.7600000e+00  5.5694283e-01  -4.4584698e-02
3.7800000e+00  5.5604242e-01  -4.5453767e-02
3.8000000e+00  5.5512476e-01  -4.6310147e-02
3.8200000e+00  5.5419010e-01  -4.7154000e-02
3.8400000e+00  5.5323868e-01  -4.7985485e-02
3.8600000e+00  5.5227076e-01  -4.8804761e-02
3.8800000e+00  5.5128657e-01  -4.9611986e-02
3.9000000e+00  5.5028636e-01  -5.0407317e-02
3.9200000e+00  5.4927036e-01  -5.1190907e-02
3.9400000e+00  5.4823880e-01  -5.1962909e-02
3.9600000e+00  5.4719192e-01  -5.2723476e-02
3.9800000e+00  5.4612994e-01  -5.3472758e-02
4.0000000e+00  5.4505308e-01  -5.4210903e-02
4.0200000e+00  5.4396158e-01  -5.4938058e-02
4.0400000e+00  5.4285563e-01  -5.5654369e-02
4.0600000e+00  5.4173547e-01  -5.6359982e-02
4.0800000e+00  5.4060130e-01  -5.7055037e-02
4.1000000e+00  5.3945334e-01  -5.7739678e-02
4.1200000e+00  5.3829179e-01  -5.8414043e-02
4.1400000e+00  5.3711685e-01  -5.9078272e-02
4.1600000e+00  5.3592872e-01  -5.9732500e-02
4.1800000e+00  5.3472761e-01  -6.0376865e-02
4.2000000e+00  5.3351371e-01  -6.1011500e-02
4.2200000e+00  5.3228722e-01  -6.1636538e-02
4.2400000e+00  5.3104831e-01  -6.2252109e-02
4.2600000e+00  5.2979719e-01  -6.2858345e-02
4.2800000e+00  5.2853404e-01  -6.3455372e-02
4.3000000e+00  5.2725904e-01  -6.4043319e-02
4.3200000e+00  5.2597237e-01  -6.4622310e-02
4.3400000e+00  5.2467421e-01  -6.5192470e-02
4.3600000e+00  5.2336473e-01  -6.5753921e-02
4.3800000e+00  5.2204411e-01  -6.6306785e-02
4.4000000e+00  5.2071251e-01  -6.6851182e-02
4.4200000e+00  5.1937011e-01  -6.7387230e-02
4.4400000e+00  5.1801708e-01  -6.7915047e-02
4.4600000e+00  5.1665357e-01  -6.8434748e-02
4.4800000e+00  5.1527974e-01  -6.8946448e-02
4.5000000e+00  5.1389576e-01  -6.9450259e-02
4.5200000e+00  5.1250178e-01  -6.9946295e-02
4.5400000e+00  5.1109796e-01  -7.0434664e-02
4.5600000e+00  5.0968445e-01  -7.0915476e-02
4.5800000e+00  5.0826139e-01  -7.1388839e-02
4.6000000e+00  5.0682894e-01  -7.1854860e-02
4.6200000e+00  5.0538725e-01  -7.2313643e-02
4.6400000e+00  5.0393644e-01  -7.2765293e-02
4.6600000e+00  5.0247668e-01  -7.3209911e-02
4.6800000e+00  5.0100809e-01  -7.3647600e-02
4.7000000e+00  4.9953082e-01  -7.4078460e-02
4.7200000e+00  4.9804500e-01  -7.4502589e-02
4.7400000e+00  4.9655076e-01  -7.4920085e-02
4.7600000e+00  4.9504824e-01  -7.5331045e-02
4.7800000e+00  4.9353756e-01  -7.5735563e-02
4.8000000e+00  4.9201886e-01  -7.6133733e-02
4.8200000e+00  4.9049226e-01  -7.6525649e-02
4.8400000e+00  4.8895788e-01  -7.6911402e-02
4.8600000e+00  4.8741584e-01  -7.7291082e-02
4.8800000e+00  4.8586627e-01  -7.7664779e-02
4.9000000e+00  4.8430929e-01  -7.8032580e-02
4.9200000e+00  4.8274501e-01  -7.8394573e-02
4.9400000e+00  4.8117354e-01  -7.8750843e-02
4.9600000e+00  4.7959501e-01  -7.9101475e-02
4.9800000e+00  4.7800952e-01  -7.9446553e-02
5.0000000e+00  4.7641719e-01  -7.9786159e-02
5.0200000e+00  4.7481811e-01  -8.0120375e-02
5.0400000e+00  4.7321241e-01  -8.0449280e-02
5.0600000e+00  4.7160018e-01  -8.0772955e-02
5.0800000e+00  4.6998152e-01  -8.1091477e-02
5.1000000e+00  4.6835655e-01  -8.1404923e-02
5.1200000e+00  4.6672536e-01  -8.1713370e-02
5.1400000e+00  4.6508805e-01  -8.2016892e-02
5.1600000e+00  4.6344472e-01  -8.2315565e-02
5.1800000e+00  4.6179546e-01  -8.2609460e-02
5.2000000e+00  4.6014037e-01  -8.2898650e-02
5.2200000e+00  4.5847954e-01  -8.3183206e-02
5.2400000e+00  4.5681307e-01  -8.3463199e-02
5.2600000e+00  4.5514104e-01  -8.3738696e-02
5.2800000e+00  4.5346355e-01  -8.4009767e-02
5.3000000e+00  4.5178068e-01  -8.4276479e-02
5.3200000e+00  4.5009252e-01  -8.4538898e-02
5.3400000e+00  4.4839916e-01  -8.4797090e-02
5.3600000e+00  4.4670067e-01  -8.5051118e-02
5.3800000e+00  4.4499714e-01  -8.5301048e-02
5.4000000e+00  4.4328865e-01  -8.5546941e-02
5.4200000e+00  4.4157529e-01  -8.5788859e-02
5.4400000e+00  4.3985712e-01  -8.6026864e-02
5.4600000e+00  4.3813424e-01  -8.6261015e-02
5.4800000e+00  4.3640671e-01  -8.6491372e-02
5.5000000e+00  4.3467461e-01  -8.6717993e-02
5.5200000e+00  4.3293801e-01  -8.6940936e-02
5.5400000e+00  4.3119699e-01  -8.7160257e-02
5.5600000e+00  4.2945163e-01  -8.7376013e-02
5.5800000e+00  4.2770198e-01  -8.7588259e-02
5.6000000e+00  4.2594812e-01  -8.7797050e-02
5.6200000e+00  4.2419012e-01  -8.8002438e-02
5.6400000e+00  4.2242804e-01  -8.8204477e-02
5.6600000e+00  4.2066196e-01  -8.8403219e-02
5.6800000e+00  4.1889194e-01  -8.8598715e-02
5.7000000e+00  4.1711803e-01  -8.8791016e-02
5.7200000e+00  4.1534032e-01  -8.8980171e-02
5.7400000e+00  4.1355885e-01  -8.9166231e-02
5.7600000e+00  4.1177369e-01  -8.9349243e-02
5.7800000e+00  4.0998490e-01  -8.9529255e-02
5.8000000e+00  4.0819254e-01  -8.9706314e-02
5.8200000e+00  4.0639666e-01  -8.9880466e-02
5.8400000e+00  4.0459734e-01  -9.0051758e-02
5.8600000e+00  4.0279461e-01  -9.0220234e-02
5.8800000e+00  4.0098855e-01  -9.0385939e-02
5.9000000e+00  3.9917919e-01  -9.0548915e-02
5.9200000e+00  3.9736661e-01  -9.0709207e-02
5.9400000e+00  3.9555084e-01  -9.0866857e-02
5.9600000e+00  3.9373195e-01  -9.1021906e-02
5.9800000e+00  3.9190998e-01  -9.1174396e-02
6.0000000e+00  3.9008499e-01  -9.1324367e-02
6.0200000e+00  3.8825703e-01  -9.1471860e-02
6.0400000e+00  3.8642613e-01  -9.1616913e-02
6.0600000e+00  3.8459237e-01  -9.1759565e-02
6.0800000e+00  3.8275577e-01  -9.1899855e-02
6.1000000e+00  3.8091639e-01  -9.2037820e-02
6.1200000e+00  3.7907427e-01  -9.2173497e-02
6.1400000e+00  3.7722946e-01  -9.2306923e-02
6.1600000e+00  3.7538201e-01  -9.2438133e-02
6.1800000e+00  3.7353195e-01  -9.2567164e-02
6.2000000e+00  3.7167934e-01  -9.2694050e-02
6.2200000e+00  3.6982420e-01  -9.2818825e-02
6.2400000e+00  3.6796660e-01  -9.2941523e-02
6.2600000e+00  3.6610656e-01  -9.3062178e-02
6.2800000e+00  3.6424412e-01  -9.3180822e-02
6.3000000e+00  3.6237934e-01  -9.3297487e-02
6.3200000e+00  3.6051224e-01  -9.3412207e-02
6.3400000e+00  3.5864286e-01  -9.3525011e-02
6.3600000e+00  3.5677125e-01  -9.3635930e-02
6.3800000e+00  3.5489744e-01  -9.3744996e-02
6.4000000e+00  3.5302146e-01  -9.3852238e-02
6.4200000e+00  3.5114336e-01  -9.3957685e-02
6.4400000e+00  3.4926316e-01  -9.4061367e-02
6.4600000e+00  3.4738091e-01  -9.4163312e-02
6.4800000e+00  3.4549664e-01  -9.4263548e-02
6.5000000e+00  3.4361038e-01  -9.4362103e-02
6.5200000e+00  3.4172217e-01  -9.4459004e-02
6.5400000e+00  3.3983203e-01  -9.4554278e-02
6.5600000e+00  3.3794001e-01  -9.4647952e-02
6.5800000e+00  3.3604613e-01  -9.4740051e-02
6.6000000e+00  3.3415042e-01  -9.4830601e-02
6.6200000e+00  3.3225291e-01  -9.4919628e-02
6.6400000e+00  3.3035364e-01  -9.5007156e-02
6.6600000e+00  3.2845264e-01  -9.5093209e-02
6.6800000e+00  3.2654992e-01  -9.5177813e-02
6.7000000e+00  3.2464553e-01  -9.5260989e-02
6.7200000e+00  3.2273949e-01  -9.5342762e-02
6.7400000e+00  3.2083183e-01  -9.5423155e-02
6.7600000e+00  3.1892258e-01  -9.5502191e-02
6.7800000e+00  3.1701175e-01  -9.5579891e-02
6.8000000e+00  3.1509939e-01  -9.5656277e-02
6.8200000e+00  3.1318551e-01  -9.5731371e-02
6.8400000e+00  3.1127014e-01  -9.5805195e-02
6.8600000e+00  3.0935331e-01  -9.5877768e-02
6.8800000e+00  3.0743504e-01  -9.5949112e-02
6.9000000e+00  3.0551536e-01  -9.6019247e-02
6.9200000e+00  3.0359428e-01  -9.6088193e-02
6.9400000e+00  3.0167184e-01  -9.6155970e-02
6.9600000e+00  2.9974805e-01  -9.6222596e-02
6.9800000e+00  2.9782294e-01  -9.6288090e-02
7.0000000e+00  2.9589653e-01  -9.6352472e-02
7.0200000e+00  2.9396885e-01  -9.6415760e-02
7.0400000e+00  2.9203991e-01  -9.6477971e-02
7.0600000e+00  2.9010974e-01  -9.6539124e-02
7.0800000e+00  2.8817835e-01  -9.6599236e-02
7.1000000e+00  2.8624577e-01  -9.6658325e-02
7.1200000e+00  2.8431202e-01  -9.6716407e-02
7.1400000e+00  2.8237712e-01  -9.6773499e-02
7.1600000e+00  2.8044109e-01  -9.6829617e-02
7.1800000e+00  2.7850395e-01  -9.6884778e-02
7.2000000e+00  2.7656571e-01  -9.6938998e-02
7.2200000e+00  2.7462639e-01  -9.6992292e-02
7.2400000e+00  2.7268602e-01  -9.7044675e-02
7.2600000e+00  2.7074461e-01  -9.7096164e-02
7.2800000e+00  2.6880218e-01  -9.7146772e-02
7.3000000e+00  2.6685875e-01  -9.7196514e-02
7.3200000e+00  2.6491432e-01  -9.7245405e-02
7.3400000e+00  2.6296893e-01  -9.7293459e-02
7.3600000e+00  2.6102259e-01  -9.7340690e-02
7.3800000e+00  2.5907531e-01  -9.7387112e-02
7.4000000e+00  2.5712711e-01  -9.7432738e-02
7.4200000e+00  2.5517801e-01  -9.7477582e-02
7.4400000e+00  2.5322801e-01  -9.7521656e-02
7.4600000e+00  2.5127715e-01  -9.7564974e-02
7.4800000e+00  2.4932542e-01  -9.7607548e-02
7.5000000e+00  2.4737285e-01  -9.7649391e-02
7.5200000e+00  2.4541945e-01  -9.7690515e-02
7.5400000e+00  2.4346523e-01  -9.7730932e-02
7.5600000e+00  2.4151022e-01  -9.7770654e-02
7.5800000e+00  2.3955441e-01  -9.7809692e-02
7.6000000e+00  2.3759783e-01  -9.7848059e-02
7.6200000e+00  2.3564049e-01  -9.7885765e-02
7.6400000e+00  2.3368241e-01  -9.7922821e-02
7.6600000e+00  2.3172359e-01  -9.7959239e-02
7.6800000e+00  2.2976404e-01  -9.7995029e-02
7.7000000e+00  2.2780379e-01  -9.8030202e-02
7.7200000e+00  2.2584284e-01  -9.8064768e-02
7.7400000e+00  2.2388120e-01  -9.8098737e-02
7.7600000e+00  2.2191889e-01  -9.8132120e-02
7.7800000e+00  2.1995592e-01  -9.8164926e-02
7.8000000e+00  2.1799230e-01  -9.8197166e-02
7.8200000e+00  2.1602804e-01  -9.8228848e-02
7.8400000e+00  2.1406315e-01  -9.8259983e-02
7.8600000e+00  2.1209764e-01  -9.8290579e-02
7.8800000e+00  2.1013153e-01  -9.8320645e-02
7.9000000e+00  2.0816482e-01  -9.8350191e-02
7.9200000e+00  2.0619753e-01  -9.8379226e-02
7.9400000e+00  2.0422965e-01  -9.8407757e-02
7.9600000e+00  2.0226122e-01  -9.8435794e-02
7.9800000e+00  2.0029223e-01  -9.8463345e-02
8.0000000e+00  1.9832269e-01  -9.8490418e-02
8.0200000e+00  1.9635261e-01  -9.8517022e-02
8.0400000e+00  1.9438201e-01  -9.8543163e-02
8.0600000e+00  1.9241089e-01  -9.8568851e-02
8.0800000e+00  1.9043926e-01  -9.8594093e-02
8.1000000e+00  1.8846713e-01  -9.8618897e-02
8.1200000e+00  1.8649451e-01  -9.8643269e-02
8.1400000e+00  1.8452140e-01  -9.8667218e-02
8.1600000e+00  1.8254782e-01  -9.8690750e-02
8.1800000e+00  1.8057377e-01  -9.8713873e-02
8.2000000e+00  1.7859927e-01  -9.8736593e-02
8.2200000e+00  1.7662431e-01  -9.8758918e-02
8.2400000e+00  1.7464891e-01  -9.8780855e-02
8.2600000e+00  1.7267308e-01  -9.8802409e-02
8.2800000e+00  1.7069682e-01  -9.8823587e-02
8.3000000e+00  1.6872014e-01  -9.8844397e-02
8.3200000e+00  1.6674305e-01  -9.8864843e-02
8.3400000e+00  1.6476555e-01  -9.8884933e-02
8.3600000e+00  1.6278765e-01  -9.8904672e-02
8.3800000e+00  1.6080936e-01  -9.8924067e-02
8.4000000e+00  1.5883069e-01  -9.8943123e-02
8.4200000e+00  1.5685164e-01  -9.8961847e-02
8.4400000e+00  1.5487222e-01  -9.8980243e-02
8.4600000e+00  1.5289243e-01  -9.8998318e-02
8.4800000e+00  1.5091229e-01  -9.9016077e-02
8.5000000e+00  1.4893179e-01  -9.9033525e-02
8.5200000e+00  1.4695095e-01  -9.9050668e-02
8.5400000e+00  1.4496977e-01  -9.9067511e-02
8.5600000e+00  1.4298825e-01  -9.9084060e-02
8.5800000e+00  1.4100641e-01  -9.9100318e-02
8.6000000e+00  1.3902424e-01  -9.9116292e-02
8.6200000e+00  1.3704176e-01  -9.9131986e-02
8.6400000e+00  1.3505896e-01  -9.9147405e-02
8.6600000e+00  1.3307586e-01  -9.9162554e-02
8.6800000e+00  1.3109246e-01  -9.9177437e-02
8.7000000e+00  1.2910877e-01  -9.9192059e-02
8.7200000e+00  1.2712478e-01  -9.9206424e-02
8.7400000e+00  1.2514051e-01  -9.9220537e-02
8.7600000e+00  1.2315596e-01  -9.9234403e-02
8.7800000e+00  1.2117114e-01  -9.9248025e-02
8.8000000e+00  1.1918604e-01  -9.9261408e-02
8.8200000e+00  1.1720068e-01  -9.9274555e-02
8.8400000e+00  1.1521506e-01  -9.9287472e-02
8.8600000e+00  1.1322918e-01  -9.9300161e-02
8.8800000e+00  1.1124306e-01  -9.9312628e-02
8.9000000e+00  1.0925668e-01  -9.9324875e-02
8.9200000e+00  1.0727006e-01  -9.9336906e-02
8.9400000e+00  1.0528321e-01  -9.9348726e-02
8.9600000e+00  1.0329612e-01  -9.9360338e-02
8.9800000e+00  1.0130879e-01  -9.9371745e-02
9.0000000e+00  9.9321247e-02  -9.9382951e-02
9.0200000e+00  9.7333478e-02  -9.9393960e-02
9.0400000e+00  9.5345490e-02  -9.9404774e-02
9.0600000e+00  9.3357288e-02  -9.9415398e-02
9.0800000e+00  9.1368875e-02  -9.9425835e-02
9.1000000e+00  8.9380256e-02  -9.9436088e-02
9.1200000e+00  8.7391433e-02  -9.9446159e-02
9.1400000e+00  8.5402411e-02  -9.9456053e-02
9.1600000e+00  8.3413192e-02  -9.9465772e-02
9.1800000e+00  8.1423781e-02  -9.9475320e-02
9.2000000e+00  7.9434180e-02  -9.9484699e-02
9.2200000e+00  7.7444394e-02  -9.9493912e-02
9.2400000e+00  7.5454425e-02  -9.9502963e-02
9.2600000e+00  7.3464276e-02  -9.9511853e-02
9.2800000e+00  7.1473952e-02  -9.9520586e-02
9.3000000e+00  6.9483454e-02  -9.9529165e-02
9.3200000e+00  6.7492786e-02  -9.9537592e-02
9.3400000e+00  6.5501951e-02  -9.9545870e-02
9.3600000e+00  6.3510952e-02  -9.9554001e-02
9.3800000e+00  6.1519792e-02  -9.9561989e-02
9.4000000e+00  5.9528474e-02  -9.9569835e-02
9.4200000e+00  5.7537000e-02  -9.9577542e-02
9.4400000e+00  5.5545373e-02  -9.9585112e-02
9.4600000e+00  5.3553596e-02  -9.9592548e-02
9.4800000e+00  5.1561672e-02  -9.9599853e-02
9.5000000e+00  4.9569603e-02  -9.9607028e-02
9.5200000e+00  4.7577392e-02  -9.9614075e-02
9.5400000e+00  4.5585041e-02  -9.9620998e-02
9.5600000e+00  4.3592553e-02  -9.9627798e-02
9.5800000e+00  4.1599930e-02  -9.9634477e-02
9.6000000e+00  3.9607174e-02  -9.9641038e-02
9.6200000e+00  3.7614289e-02  -9.9647482e-02
9.6400000e+00  3.5621276e-02  -9.9653811e-02
9.6600000e+00  3.3628137e-02  -9.9660028e-02
9.6800000e+00  3.1634875e-02  -9.9666135e-02
9.7000000e+00  2.9641493e-02  -9.9672133e-02
9.7200000e+00  2.7647991e-02  -9.9678025e-02
9.7400000e+00  2.5654372e-02  -9.9683811e-02
9.7600000e+00  2.3660639e-02  -9.9689495e-02
9.7800000e+00  2.1666793e-02  -9.9695078e-02
9.8000000e+00  1.9672837e-02  -9.9700561e-02
9.8200000e+00  1.7678771e-02  -9.9705947e-02
9.8400000e+00  1.5684599e-02  -9.9711237e-02
9.8600000e+00  1.3690322e-02  -9.9716433e-02
9.8800000e+00  1.1695943e-02  -9.9721536e-02
9.9000000e+00  9.7014616e-03  -9.9726548e-02
9.9200000e+00  7.7068813e-03  -9.9731471e-02
9.9400000e+00  5.7122034e-03  -9.9736306e-02
9.9600000e+00  3.7174296e-03  -9.9741055e-02
9.9800000e+00  1.7225618e-03  -9.9745719e-02
1.0000000e+01  -2.7239858e-04  -9.9750300e-02
1.0020000e+01  -2.2674497e-03  -9.9754800e-02
1.0040000e+01  -4.2625900e-03  -9.9759219e-02
1.0060000e+01  -6.2578179e-03  -9.9763559e-02
1.0080000e+01  -8.2531319e-03  -9.9767822e-02
1.0100000e+01  -1.0248530e-02  -9.9772008e-02
1.0120000e+01  -1.2244012e-02  -9.9776120e-02
1.0140000e+01  -1.4239575e-02  -9.9780159e-02
1.0160000e+01  -1.6235218e-02  -9.9784125e-02
1.0180000e+01  -1.8230939e-02  -9.9788020e-02
1.0200000e+01  -2.0226738e-02  -9.9791846e-02
1.0220000e+01  -2.2222613e-02  -9.9795604e-02
1.0240000e+01  -2.4218562e-02  -9.9799294e-02
1.0260000e+01  -2.6214584e-02  -9.9802918e-02
1.0280000e+01  -2.8210678e-02  -9.9806477e-02
1.0300000e+01  -3.0206843e-02  -9.9809973e-02
1.0320000e+01  -3.2203076e-02  -9.9813406e-02
1.0340000e+01  -3.4199378e-02  -9.9816778e-02
1.0360000e+01  -3.6195747e-02  -9.9820089e-02
1.0380000e+01  -3.8192182e-02  -9.9823341e-02
1.0400000e+01  -4.0188680e-02  -9.9826535e-02
1.0420000e+01  -4.2185243e-02  -9.9829671e-02
1.0440000e+01  -4.4181867e-02  -9.9832752e-02
1.0460000e+01  -4.6178552e-02  -9.9835777e-02
1.0480000e+01  -4.8175298e-02  -9.9838748e-02
1.0500000e+01  -5.0172102e-02  -9.9841665e-02
1.0520000e+01  -5.2168964e-02  -9.9844531e-02
1.0540000e+01  -5.4165883e-02  -9.9847345e-02
1.0560000e+01  -5.6162857e-02  -9.9850108e-02
1.0580000e+01  -5.8159887e-02  -9.9852822e-02
1.0600000e+01  -6.0156970e-02  -9.9855487e-02
1.0620000e+01  -6.2154106e-02  -9.9858104e-02
1.0640000e+01  -6.4151294e-02  -9.9860675e-02
1.0660000e+01  -6.6148532e-02  -9.9863199e-02
1.0680000e+01  -6.8145821e-02  -9.9865678e-02
1.0700000e+01  -7.0143159e-02  -9.9868112e-02
1.0720000e+01  -7.2140546e-02  -9.9870503e-02
1.0740000e+01  -7.4137979e-02  -9.9872850e-02
1.0760000e+01  -7.6135459e-02  -9.9875156e-02
1.0780000e+01  -7.8132985e-02  -9.9877420e-02
1.0800000e+01  -8.0130556e-02  -9.9879643e-02
1.0820000e+01  -8.2128171e-02  -9.9881826e-02
1.0840000e+01  -8.4125829e-02  -9.9883970e-02
1.0860000e+01  -8.6123529e-02  -9.9886076e-02
1.0880000e+01  -8.8121271e-02  -9.9888143e-02
1.0900000e+01  -9.0119055e-02  -9.9890173e-02
1.0920000e+01  -9.2116878e-02  -9.9892167e-02
1.0940000e+01  -9.4114741e-02  -9.9894125e-02
1.0960000e+01  -9.6112643e-02  -9.9896048e-02
1.0980000e+01  -9.8110583e-02  -9.9897936e-02
1.1000000e+01  -1.0010856e-01  -9.9899790e-02
1.1020000e+01  -1.0210657e-01  -9.9901610e-02
1.1040000e+01  -1.0410462e-01  -9.9903398e-02
1.1060000e+01  -1.0610271e-01  -9.9905154e-02
1.1080000e+01  -1.0810083e-01  -9.9906878e-02
1.1100000e+01  -1.1009898e-01  -9.9908570e-02
1.1120000e+01  -1.1209717e-01  -9.9910233e-02
1.1140000e+01  -1.1409539e-01  -9.9911865e-02
1.1160000e+01  -1.1609365e-01  -9.9913468e-02
1.1180000e+01  -1.1809193e-01  -9.9915042e-02
1.1200000e+01  -1.2009025e-01  -9.9916587e-02
1.1220000e+01  -1.2208860e-01  -9.9918105e-02
1.1240000e+01  -1.2408697e-01  -9.9919595e-02
1.1260000e+01  -1.2608538e-01  -9.9921059e-02
1.1280000e+01  -1.2808381e-01  -9.9922495e-02
1.1300000e+01  -1.3008228e-01  -9.9923906e-02
1.1320000e+01  -1.3208077e-01  -9.9925292e-02
1.1340000e+01  -1.3407929e-01  -9.9926652e-02
1.1360000e+01  -1.3607784e-01  -9.9927988e-02
1.1380000e+01  -1.3807641e-01  -9.9929300e-02
1.1400000e+01  -1.4007501e-01  -9.9930588e-02
1.1420000e+01  -1.4207363e-01  -9.9931853e-02
1.1440000e+01  -1.4407228e-01  -9.9933094e-02
1.1460000e+01  -1.4607096e-01  -9.9934314e-02
1.1480000e+01  -1.4806965e-01  -9.9935511e-02
1.1500000e+01  -1.5006838e-01  -9.9936687e-02
1.1520000e+01  -1.5206712e-01  -9.9937841e-02
1.1540000e+01  -1.5406589e-01  -9.9938975e-02
1.1560000e+01  -1.5606468e-01  -9.9940088e-02
1.1580000e+01  -1.5806349e-01  -9.9941181e-02
1.1600000e+01  -1.6006233e-01  -9.9942254e-02
1.1620000e+01  -1.6206118e-01  -9.9943307e-02
1.1640000e+01  -1.6406006e-01  -9.9944342e-02
1.1660000e+01  -1.6605896e-01  -9.9945357e-02
1.1680000e+01  -1.6805787e-01  -9.9946355e-02
1.1700000e+01  -1.7005681e-01  -9.9947334e-02
1.1720000e+01  -1.7205577e-01  -9.9948296e-02
1.1740000e+01  -1.7405474e-01  -9.9949240e-02
1.1760000e+01  -1.7605374e-01  -9.9950167e-02
1.1780000e+01  -1.7805275e-01  -9.9951077e-02
1.1800000e+01  -1.8005178e-01  -9.9951971e-02
1.1820000e+01  -1.8205083e-01  -9.9952848e-02
1.1840000e+01  -1.8404989e-01  -9.9953710e-02
1.1860000e+01  -1.8604898e-01  -9.9954556e-02
1.1880000e+01  -1.8804808e-01  -9.9955386e-02
1.1900000e+01  -1.9004719e-01  -9.9956202e-02
1.1920000e+01  -1.9204632e-01  -9.9957003e-02
1.1940000e+01  -1.9404547e-01  -9.9957789e-02
1.1960000e+01  -1.9604464e-01  -9.9958561e-02
1.1980000e+01  -1.9804381e-01  -9.9959318e-02
1.2000000e+01  -2.0004301e-01  -9.9960063e-02
1.2020000e+01  -2.0204222e-01  -9.9960793e-02
1.2040000e+01  -2.0404144e-01  -9.9961510e-02
1.2060000e+01  -2.0604068e-01  -9.9962215e-02
1.2080000e+01  -2.0803993e-01  -9.9962906e-02
1.2100000e+01  -2.1003919e-01  -9.9963585e-02
1.2120000e+01  -2.1203847e-01  -9.9964252e-02
1.2140000e+01  -2.1403776e-01  -9.9964906e-02
1.2160000e+01  -2.1603707e-01  -9.9965549e-02
1.2180000e+01  -2.1803639e-01  -9.9966180e-02
1.2200000e+01  -2.2003572e-01  -9.9966799e-02
1.2220000e+01  -2.2203506e-01  -9.9967407e-02
1.2240000e+01  -2.2403441e-01  -9.9968004e-02
1.2260000e+01  -2.2603378e-01  -9.9968590e-02
1.2280000e+01  -2.2803315e-01  -9.9969166e-02
1.2300000e+01  -2.3003254e-01  -9.9969731e-02
1.2320000e+01  -2.3203194e-01  -9.9970286e-02
1.2340000e+01  -2.3403136e-01  -9.9970830e-02
1.2360000e+01  -2.3603078e-01  -9.9971365e-02
1.2380000e+01  -2.3803021e-01  -9.9971890e-02
1.2400000e+01  -2.4002965e-01  -9.9972405e-02
1.2420000e+01  -2.4202911e-01  -9.9972911e-02
1.2440000e+01  -2.4402857e-01  -9.9973408e-02
1.2460000e+01  -2.4602804e-01  -9.9973896e-02
1.2480000e+01  -2.4802752e-01  -9.9974375e-02
